Timestamp,ECG_Value
2025-01-09 14:48:27.779,313.000000
2025-01-09 14:48:27.836,317.000000
2025-01-09 14:48:27.846,318.000000
2025-01-09 14:48:27.861,321.000000
2025-01-09 14:48:27.882,316.000000
2025-01-09 14:48:27.891,319.000000
2025-01-09 14:48:27.895,316.000000
2025-01-09 14:48:27.899,324.000000
2025-01-09 14:48:27.903,314.000000
2025-01-09 14:48:27.908,323.000000
2025-01-09 14:48:27.911,318.000000
2025-01-09 14:48:27.915,321.000000
2025-01-09 14:48:27.919,327.000000
2025-01-09 14:48:27.924,328.000000
2025-01-09 14:48:27.927,332.000000
2025-01-09 14:48:27.931,348.000000
2025-01-09 14:48:27.934,335.000000
2025-01-09 14:48:27.939,332.000000
2025-01-09 14:48:27.943,322.000000
2025-01-09 14:48:27.947,322.000000
2025-01-09 14:48:27.950,320.000000
2025-01-09 14:48:27.955,321.000000
2025-01-09 14:48:27.958,322.000000
2025-01-09 14:48:27.961,312.000000
2025-01-09 14:48:27.964,297.000000
2025-01-09 14:48:27.969,295.000000
2025-01-09 14:48:27.973,386.000000
2025-01-09 14:48:27.976,522.000000
2025-01-09 14:48:27.980,352.000000
2025-01-09 14:48:27.984,147.000000
2025-01-09 14:48:27.989,141.000000
2025-01-09 14:48:27.994,207.000000
2025-01-09 14:48:28.000,279.000000
2025-01-09 14:48:28.004,339.000000
2025-01-09 14:48:28.009,348.000000
2025-01-09 14:48:28.019,345.000000
2025-01-09 14:48:28.024,356.000000
2025-01-09 14:48:28.030,352.000000
2025-01-09 14:48:28.040,357.000000
2025-01-09 14:48:28.050,361.000000
2025-01-09 14:48:28.059,367.000000
2025-01-09 14:48:28.070,368.000000
2025-01-09 14:48:28.080,377.000000
2025-01-09 14:48:28.103,380.000000
2025-01-09 14:48:28.185,388.000000
2025-01-09 14:48:28.191,393.000000
2025-01-09 14:48:28.195,399.000000
2025-01-09 14:48:28.201,398.000000
2025-01-09 14:48:28.207,401.000000
2025-01-09 14:48:28.212,390.000000
2025-01-09 14:48:28.218,377.000000
2025-01-09 14:48:28.224,361.000000
2025-01-09 14:48:28.230,347.000000
2025-01-09 14:48:28.236,332.000000
2025-01-09 14:48:28.242,326.000000
2025-01-09 14:48:28.248,317.000000
2025-01-09 14:48:28.254,317.000000
2025-01-09 14:48:28.259,315.000000
2025-01-09 14:48:28.263,315.000000
2025-01-09 14:48:28.268,315.000000
2025-01-09 14:48:28.273,316.000000
2025-01-09 14:48:28.282,318.000000
2025-01-09 14:48:28.287,317.000000
2025-01-09 14:48:28.303,322.000000
2025-01-09 14:48:28.307,318.000000
2025-01-09 14:48:28.323,320.000000
2025-01-09 14:48:28.335,316.000000
2025-01-09 14:48:28.343,323.000000
2025-01-09 14:48:28.353,317.000000
2025-01-09 14:48:28.363,320.000000
2025-01-09 14:48:28.384,318.000000
2025-01-09 14:48:28.389,327.000000
2025-01-09 14:48:28.395,328.000000
2025-01-09 14:48:28.405,334.000000
2025-01-09 14:48:28.414,341.000000
2025-01-09 14:48:28.425,345.000000
2025-01-09 14:48:28.435,326.000000
2025-01-09 14:48:28.444,328.000000
2025-01-09 14:48:28.456,319.000000
2025-01-09 14:48:28.476,322.000000
2025-01-09 14:48:28.483,316.000000
2025-01-09 14:48:28.489,320.000000
2025-01-09 14:48:28.494,314.000000
2025-01-09 14:48:28.516,292.000000
2025-01-09 14:48:28.523,282.000000
2025-01-09 14:48:28.537,344.000000
2025-01-09 14:48:28.543,523.000000
2025-01-09 14:48:28.550,433.000000
2025-01-09 14:48:28.560,140.000000
2025-01-09 14:48:28.569,115.000000
2025-01-09 14:48:28.589,200.000000
2025-01-09 14:48:28.595,268.000000
2025-01-09 14:48:28.601,340.000000
2025-01-09 14:48:28.616,341.000000
2025-01-09 14:48:28.623,345.000000
2025-01-09 14:48:28.631,352.000000
2025-01-09 14:48:28.645,354.000000
2025-01-09 14:48:28.674,355.000000
2025-01-09 14:48:28.681,362.000000
2025-01-09 14:48:28.688,366.000000
2025-01-09 14:48:28.693,368.000000
2025-01-09 14:48:28.699,372.000000
2025-01-09 14:48:28.705,385.000000
2025-01-09 14:48:28.711,389.000000
2025-01-09 14:48:28.720,399.000000
2025-01-09 14:48:28.730,398.000000
2025-01-09 14:48:28.741,406.000000
2025-01-09 14:48:28.750,400.000000
2025-01-09 14:48:28.760,396.000000
2025-01-09 14:48:28.771,378.000000
2025-01-09 14:48:28.783,366.000000
2025-01-09 14:48:28.800,343.000000
2025-01-09 14:48:28.806,335.000000
2025-01-09 14:48:28.821,321.000000
2025-01-09 14:48:28.826,317.000000
2025-01-09 14:48:28.841,309.000000
2025-01-09 14:48:28.846,311.000000
2025-01-09 14:48:28.860,308.000000
2025-01-09 14:48:28.865,312.000000
2025-01-09 14:48:28.877,310.000000
2025-01-09 14:48:28.886,316.000000
2025-01-09 14:48:28.901,312.000000
2025-01-09 14:48:28.907,317.000000
2025-01-09 14:48:28.922,316.000000
2025-01-09 14:48:28.930,318.000000
2025-01-09 14:48:28.942,317.000000
2025-01-09 14:48:28.951,318.000000
2025-01-09 14:48:28.961,318.000000
2025-01-09 14:48:28.971,318.000000
2025-01-09 14:48:28.981,318.000000
2025-01-09 14:48:28.994,318.000000
2025-01-09 14:48:29.002,321.000000
2025-01-09 14:48:29.012,327.000000
2025-01-09 14:48:29.022,331.000000
2025-01-09 14:48:29.032,332.000000
2025-01-09 14:48:29.043,345.000000
2025-01-09 14:48:29.058,328.000000
2025-01-09 14:48:29.062,327.000000
2025-01-09 14:48:29.073,318.000000
2025-01-09 14:48:29.083,323.000000
2025-01-09 14:48:29.094,315.000000
2025-01-09 14:48:29.110,322.000000
2025-01-09 14:48:29.114,317.000000
2025-01-09 14:48:29.120,299.000000
2025-01-09 14:48:29.135,286.000000
2025-01-09 14:48:29.144,320.000000
2025-01-09 14:48:29.155,492.000000
2025-01-09 14:48:29.165,501.000000
2025-01-09 14:48:29.176,160.000000
2025-01-09 14:48:29.185,103.000000
2025-01-09 14:48:29.197,190.000000
2025-01-09 14:48:29.206,261.000000
2025-01-09 14:48:29.216,337.000000
2025-01-09 14:48:29.226,346.000000
2025-01-09 14:48:29.242,345.000000
2025-01-09 14:48:29.247,355.000000
2025-01-09 14:48:29.257,355.000000
2025-01-09 14:48:29.275,361.000000
2025-01-09 14:48:29.279,362.000000
2025-01-09 14:48:29.285,367.000000
2025-01-09 14:48:29.297,371.000000
2025-01-09 14:48:29.314,377.000000
2025-01-09 14:48:29.326,383.000000
2025-01-09 14:48:29.330,392.000000
2025-01-09 14:48:29.339,399.000000
2025-01-09 14:48:29.348,407.000000
2025-01-09 14:48:29.358,407.000000
2025-01-09 14:48:29.368,409.000000
2025-01-09 14:48:29.378,404.000000
2025-01-09 14:48:29.389,386.000000
2025-01-09 14:48:29.402,372.000000
2025-01-09 14:48:29.413,351.000000
2025-01-09 14:48:29.422,338.000000
2025-01-09 14:48:29.433,321.000000
2025-01-09 14:48:29.443,317.000000
2025-01-09 14:48:29.454,309.000000
2025-01-09 14:48:29.463,312.000000
2025-01-09 14:48:29.473,307.000000
2025-01-09 14:48:29.483,312.000000
2025-01-09 14:48:29.494,307.000000
2025-01-09 14:48:29.505,317.000000
2025-01-09 14:48:29.514,310.000000
2025-01-09 14:48:29.524,319.000000
2025-01-09 14:48:29.535,314.000000
2025-01-09 14:48:29.545,321.000000
2025-01-09 14:48:29.556,318.000000
2025-01-09 14:48:29.564,320.000000
2025-01-09 14:48:29.575,316.000000
2025-01-09 14:48:29.585,322.000000
2025-01-09 14:48:29.595,317.000000
2025-01-09 14:48:29.605,321.000000
2025-01-09 14:48:29.615,317.000000
2025-01-09 14:48:29.625,321.000000
2025-01-09 14:48:29.635,324.000000
2025-01-09 14:48:29.645,331.000000
2025-01-09 14:48:29.665,330.000000
2025-01-09 14:48:29.667,343.000000
2025-01-09 14:48:29.675,337.000000
2025-01-09 14:48:29.685,327.000000
2025-01-09 14:48:29.695,329.000000
2025-01-09 14:48:29.715,322.000000
2025-01-09 14:48:29.717,322.000000
2025-01-09 14:48:29.725,320.000000
2025-01-09 14:48:29.735,323.000000
2025-01-09 14:48:29.755,317.000000
2025-01-09 14:48:29.765,299.000000
2025-01-09 14:48:29.775,292.000000
2025-01-09 14:48:29.786,362.000000
2025-01-09 14:48:29.795,526.000000
2025-01-09 14:48:29.816,397.000000
2025-01-09 14:48:29.818,140.000000
2025-01-09 14:48:29.826,128.000000
2025-01-09 14:48:29.837,206.000000
2025-01-09 14:48:29.847,279.000000
2025-01-09 14:48:29.857,338.000000
2025-01-09 14:48:29.867,349.000000
2025-01-09 14:48:29.879,351.000000
2025-01-09 14:48:29.887,360.000000
2025-01-09 14:48:29.897,358.000000
2025-01-09 14:48:29.908,362.000000
2025-01-09 14:48:29.918,362.000000
2025-01-09 14:48:29.928,371.000000
2025-01-09 14:48:29.939,371.000000
2025-01-09 14:48:29.949,379.000000
2025-01-09 14:48:29.959,384.000000
2025-01-09 14:48:29.970,395.000000
2025-01-09 14:48:29.980,401.000000
2025-01-09 14:48:29.990,407.000000
2025-01-09 14:48:30.009,406.000000
2025-01-09 14:48:30.013,408.000000
2025-01-09 14:48:30.020,400.000000
2025-01-09 14:48:30.030,384.000000
2025-01-09 14:48:30.040,367.000000
2025-01-09 14:48:30.050,350.000000
2025-01-09 14:48:30.061,336.000000
2025-01-09 14:48:30.071,327.000000
2025-01-09 14:48:30.081,318.000000
2025-01-09 14:48:30.091,319.000000
2025-01-09 14:48:30.101,314.000000
2025-01-09 14:48:30.112,312.000000
2025-01-09 14:48:30.122,316.000000
2025-01-09 14:48:30.132,316.000000
2025-01-09 14:48:30.143,317.000000
2025-01-09 14:48:30.153,317.000000
2025-01-09 14:48:30.163,321.000000
2025-01-09 14:48:30.173,317.000000
2025-01-09 14:48:30.183,322.000000
2025-01-09 14:48:30.194,316.000000
2025-01-09 14:48:30.204,322.000000
2025-01-09 14:48:30.214,317.000000
2025-01-09 14:48:30.225,322.000000
2025-01-09 14:48:30.234,317.000000
2025-01-09 14:48:30.245,321.000000
2025-01-09 14:48:30.255,317.000000
2025-01-09 14:48:30.265,321.000000
2025-01-09 14:48:30.286,321.000000
2025-01-09 14:48:30.291,328.000000
2025-01-09 14:48:30.296,332.000000
2025-01-09 14:48:30.308,333.000000
2025-01-09 14:48:30.318,340.000000
2025-01-09 14:48:30.327,341.000000
2025-01-09 14:48:30.343,327.000000
2025-01-09 14:48:30.354,332.000000
2025-01-09 14:48:30.361,321.000000
2025-01-09 14:48:30.374,323.000000
2025-01-09 14:48:30.384,321.000000
2025-01-09 14:48:30.391,323.000000
2025-01-09 14:48:30.399,315.000000
2025-01-09 14:48:30.419,302.000000
2025-01-09 14:48:30.425,299.000000
2025-01-09 14:48:30.432,375.000000
2025-01-09 14:48:30.440,516.000000
2025-01-09 14:48:30.452,359.000000
2025-01-09 14:48:30.467,151.000000
2025-01-09 14:48:30.479,133.000000
2025-01-09 14:48:30.488,208.000000
2025-01-09 14:48:30.494,279.000000
2025-01-09 14:48:30.503,345.000000
2025-01-09 14:48:30.515,342.000000
2025-01-09 14:48:30.531,351.000000
2025-01-09 14:48:30.544,352.000000
2025-01-09 14:48:30.553,357.000000
2025-01-09 14:48:30.560,358.000000
2025-01-09 14:48:30.569,364.000000
2025-01-09 14:48:30.580,364.000000
2025-01-09 14:48:30.588,373.000000
2025-01-09 14:48:30.604,377.000000
2025-01-09 14:48:30.619,383.000000
2025-01-09 14:48:30.626,388.000000
2025-01-09 14:48:30.648,400.000000
2025-01-09 14:48:30.657,401.000000
2025-01-09 14:48:30.662,407.000000
2025-01-09 14:48:30.671,400.000000
2025-01-09 14:48:30.678,397.000000
2025-01-09 14:48:30.684,377.000000
2025-01-09 14:48:30.691,369.000000
2025-01-09 14:48:30.701,345.000000
2025-01-09 14:48:30.712,335.000000
2025-01-09 14:48:30.721,322.000000
2025-01-09 14:48:30.740,321.000000
2025-01-09 14:48:30.746,313.000000
2025-01-09 14:48:30.753,314.000000
2025-01-09 14:48:30.762,311.000000
2025-01-09 14:48:30.773,315.000000
2025-01-09 14:48:30.782,314.000000
2025-01-09 14:48:30.793,317.000000
2025-01-09 14:48:30.808,315.000000
2025-01-09 14:48:30.816,317.000000
2025-01-09 14:48:30.824,318.000000
2025-01-09 14:48:30.834,318.000000
2025-01-09 14:48:30.844,319.000000
2025-01-09 14:48:30.854,320.000000
2025-01-09 14:48:30.863,319.000000
2025-01-09 14:48:30.874,319.000000
2025-01-09 14:48:30.884,317.000000
2025-01-09 14:48:30.894,318.000000
2025-01-09 14:48:30.906,322.000000
2025-01-09 14:48:30.914,317.000000
2025-01-09 14:48:30.925,321.000000
2025-01-09 14:48:30.935,320.000000
2025-01-09 14:48:30.945,330.000000
2025-01-09 14:48:30.956,330.000000
2025-01-09 14:48:30.965,336.000000
2025-01-09 14:48:30.976,344.000000
2025-01-09 14:48:30.985,333.000000
2025-01-09 14:48:30.996,327.000000
2025-01-09 14:48:31.006,327.000000
2025-01-09 14:48:31.015,320.000000
2025-01-09 14:48:31.026,323.000000
2025-01-09 14:48:31.041,320.000000
2025-01-09 14:48:31.056,324.000000
2025-01-09 14:48:31.060,301.000000
2025-01-09 14:48:31.066,300.000000
2025-01-09 14:48:31.077,308.000000
2025-01-09 14:48:31.088,463.000000
2025-01-09 14:48:31.104,497.000000
2025-01-09 14:48:31.112,208.000000
2025-01-09 14:48:31.123,98.000000
2025-01-09 14:48:31.127,189.000000
2025-01-09 14:48:31.140,248.000000
2025-01-09 14:48:31.148,329.000000
2025-01-09 14:48:31.159,347.000000
2025-01-09 14:48:31.178,348.000000
2025-01-09 14:48:31.182,354.000000
2025-01-09 14:48:31.198,358.000000
2025-01-09 14:48:31.202,359.000000
2025-01-09 14:48:31.218,362.000000
2025-01-09 14:48:31.223,367.000000
2025-01-09 14:48:31.240,371.000000
2025-01-09 14:48:31.244,377.000000
2025-01-09 14:48:31.260,381.000000
2025-01-09 14:48:31.264,391.000000
2025-01-09 14:48:31.279,396.000000
2025-01-09 14:48:31.283,407.000000
2025-01-09 14:48:31.301,405.000000
2025-01-09 14:48:31.306,410.000000
2025-01-09 14:48:31.321,401.000000
2025-01-09 14:48:31.326,391.000000
2025-01-09 14:48:31.352,370.000000
2025-01-09 14:48:31.356,354.000000
2025-01-09 14:48:31.362,337.000000
2025-01-09 14:48:31.366,326.000000
2025-01-09 14:48:31.383,314.000000
2025-01-09 14:48:31.388,315.000000
2025-01-09 14:48:31.395,308.000000
2025-01-09 14:48:31.405,311.000000
2025-01-09 14:48:31.425,306.000000
2025-01-09 14:48:31.429,313.000000
2025-01-09 14:48:31.444,311.000000
2025-01-09 14:48:31.448,315.000000
2025-01-09 14:48:31.462,313.000000
2025-01-09 14:48:31.471,317.000000
2025-01-09 14:48:31.479,316.000000
2025-01-09 14:48:31.487,320.000000
2025-01-09 14:48:31.506,316.000000
2025-01-09 14:48:31.510,321.000000
2025-01-09 14:48:31.526,316.000000
2025-01-09 14:48:31.536,320.000000
2025-01-09 14:48:31.546,317.000000
2025-01-09 14:48:31.556,321.000000
2025-01-09 14:48:31.562,318.000000
2025-01-09 14:48:31.576,318.000000
2025-01-09 14:48:31.587,320.000000
2025-01-09 14:48:31.598,320.000000
2025-01-09 14:48:31.607,328.000000
2025-01-09 14:48:31.618,332.000000
2025-01-09 14:48:31.627,329.000000
2025-01-09 14:48:31.639,342.000000
2025-01-09 14:48:31.648,336.000000
2025-01-09 14:48:31.658,326.000000
2025-01-09 14:48:31.668,327.000000
2025-01-09 14:48:31.683,323.000000
2025-01-09 14:48:31.687,322.000000
2025-01-09 14:48:31.699,316.000000
2025-01-09 14:48:31.708,325.000000
2025-01-09 14:48:31.719,311.000000
2025-01-09 14:48:31.729,298.000000
2025-01-09 14:48:31.740,291.000000
2025-01-09 14:48:31.750,389.000000
2025-01-09 14:48:31.761,539.000000
2025-01-09 14:48:31.778,318.000000
2025-01-09 14:48:31.782,103.000000
2025-01-09 14:48:31.791,155.000000
2025-01-09 14:48:31.801,219.000000
2025-01-09 14:48:31.811,301.000000
2025-01-09 14:48:31.822,346.000000
2025-01-09 14:48:31.831,348.000000
2025-01-09 14:48:31.842,351.000000
2025-01-09 14:48:31.851,358.000000
2025-01-09 14:48:31.862,357.000000
2025-01-09 14:48:31.882,363.000000
2025-01-09 14:48:31.889,364.000000
2025-01-09 14:48:31.894,368.000000
2025-01-09 14:48:31.902,372.000000
2025-01-09 14:48:31.912,385.000000
2025-01-09 14:48:31.933,388.000000
2025-01-09 14:48:31.937,394.000000
2025-01-09 14:48:31.943,404.000000
2025-01-09 14:48:31.963,408.000000
2025-01-09 14:48:31.967,411.000000
2025-01-09 14:48:31.974,406.000000
2025-01-09 14:48:31.990,398.000000
2025-01-09 14:48:32.005,380.000000
2025-01-09 14:48:32.011,362.000000
2025-01-09 14:48:32.015,346.000000
2025-01-09 14:48:32.025,333.000000
2025-01-09 14:48:32.035,319.000000
2025-01-09 14:48:32.045,316.000000
2025-01-09 14:48:32.066,308.000000
2025-01-09 14:48:32.071,312.000000
2025-01-09 14:48:32.076,307.000000
2025-01-09 14:48:32.092,314.000000
2025-01-09 14:48:32.099,309.000000
2025-01-09 14:48:32.107,317.000000
2025-01-09 14:48:32.118,311.000000
2025-01-09 14:48:32.126,317.000000
2025-01-09 14:48:32.137,311.000000
2025-01-09 14:48:32.147,321.000000
2025-01-09 14:48:32.157,317.000000
2025-01-09 14:48:32.167,321.000000
2025-01-09 14:48:32.183,313.000000
2025-01-09 14:48:32.199,321.000000
2025-01-09 14:48:32.205,317.000000
2025-01-09 14:48:32.216,323.000000
2025-01-09 14:48:32.231,319.000000
2025-01-09 14:48:32.238,322.000000
2025-01-09 14:48:32.244,318.000000
2025-01-09 14:48:32.256,321.000000
2025-01-09 14:48:32.265,327.000000
2025-01-09 14:48:32.282,333.000000
2025-01-09 14:48:32.287,326.000000
2025-01-09 14:48:32.296,343.000000
2025-01-09 14:48:32.308,336.000000
2025-01-09 14:48:32.319,329.000000
2025-01-09 14:48:32.326,327.000000
2025-01-09 14:48:32.342,322.000000
2025-01-09 14:48:32.348,322.000000
2025-01-09 14:48:32.365,320.000000
2025-01-09 14:48:32.371,322.000000
2025-01-09 14:48:32.378,314.000000
2025-01-09 14:48:32.390,303.000000
2025-01-09 14:48:32.407,300.000000
2025-01-09 14:48:32.412,378.000000
2025-01-09 14:48:32.429,507.000000
2025-01-09 14:48:32.434,353.000000
2025-01-09 14:48:32.442,146.000000
2025-01-09 14:48:32.451,142.000000
2025-01-09 14:48:32.462,207.000000
2025-01-09 14:48:32.472,282.000000
2025-01-09 14:48:32.483,338.000000
2025-01-09 14:48:32.493,349.000000
2025-01-09 14:48:32.508,346.000000
2025-01-09 14:48:32.512,356.000000
2025-01-09 14:48:32.524,355.000000
2025-01-09 14:48:32.534,361.000000
2025-01-09 14:48:32.544,361.000000
2025-01-09 14:48:32.555,369.000000
2025-01-09 14:48:32.565,366.000000
2025-01-09 14:48:32.575,379.000000
2025-01-09 14:48:32.596,382.000000
2025-01-09 14:48:32.600,394.000000
2025-01-09 14:48:32.616,396.000000
2025-01-09 14:48:32.620,404.000000
2025-01-09 14:48:32.626,404.000000
2025-01-09 14:48:32.638,406.000000
2025-01-09 14:48:32.647,394.000000
2025-01-09 14:48:32.658,383.000000
2025-01-09 14:48:32.668,362.000000
2025-01-09 14:48:32.678,350.000000
2025-01-09 14:48:32.689,332.000000
2025-01-09 14:48:32.698,325.000000
2025-01-09 14:48:32.709,320.000000
2025-01-09 14:48:32.720,315.000000
2025-01-09 14:48:32.729,314.000000
2025-01-09 14:48:32.740,313.000000
2025-01-09 14:48:32.750,315.000000
2025-01-09 14:48:32.760,314.000000
2025-01-09 14:48:32.780,317.000000
2025-01-09 14:48:32.783,315.000000
2025-01-09 14:48:32.794,319.000000
2025-01-09 14:48:32.803,317.000000
2025-01-09 14:48:32.812,322.000000
2025-01-09 14:48:32.823,317.000000
2025-01-09 14:48:32.833,321.000000
2025-01-09 14:48:32.842,316.000000
2025-01-09 14:48:32.852,322.000000
2025-01-09 14:48:32.863,317.000000
2025-01-09 14:48:32.874,322.000000
2025-01-09 14:48:32.883,315.000000
2025-01-09 14:48:32.893,320.000000
2025-01-09 14:48:32.904,317.000000
2025-01-09 14:48:32.914,327.000000
2025-01-09 14:48:32.924,327.000000
2025-01-09 14:48:32.934,334.000000
2025-01-09 14:48:32.945,334.000000
2025-01-09 14:48:32.966,349.000000
2025-01-09 14:48:32.968,326.000000
2025-01-09 14:48:32.992,331.000000
2025-01-09 14:48:32.997,318.000000
2025-01-09 14:48:33.000,322.000000
2025-01-09 14:48:33.016,316.000000
2025-01-09 14:48:33.019,321.000000
2025-01-09 14:48:33.026,317.000000
2025-01-09 14:48:33.036,304.000000
2025-01-09 14:48:33.047,293.000000
2025-01-09 14:48:33.057,304.000000
2025-01-09 14:48:33.067,451.000000
2025-01-09 14:48:33.076,513.000000
2025-01-09 14:48:33.097,196.000000
2025-01-09 14:48:33.100,88.000000
2025-01-09 14:48:33.107,187.000000
2025-01-09 14:48:33.117,246.000000
2025-01-09 14:48:33.128,330.000000
2025-01-09 14:48:33.139,344.000000
2025-01-09 14:48:33.158,347.000000
2025-01-09 14:48:33.161,349.000000
2025-01-09 14:48:33.168,357.000000
2025-01-09 14:48:33.178,355.000000
2025-01-09 14:48:33.189,360.000000
2025-01-09 14:48:33.198,362.000000
2025-01-09 14:48:33.208,371.000000
2025-01-09 14:48:33.218,372.000000
2025-01-09 14:48:33.228,387.000000
2025-01-09 14:48:33.239,389.000000
2025-01-09 14:48:33.259,401.000000
2025-01-09 14:48:33.261,404.000000
2025-01-09 14:48:33.269,411.000000
2025-01-09 14:48:33.279,407.000000
2025-01-09 14:48:33.300,407.000000
2025-01-09 14:48:33.303,389.000000
2025-01-09 14:48:33.320,375.000000
2025-01-09 14:48:33.323,352.000000
2025-01-09 14:48:33.340,340.000000
2025-01-09 14:48:33.343,323.000000
2025-01-09 14:48:33.361,319.000000
2025-01-09 14:48:33.364,311.000000
2025-01-09 14:48:33.381,314.000000
2025-01-09 14:48:33.385,308.000000
2025-01-09 14:48:33.401,312.000000
2025-01-09 14:48:33.405,312.000000
2025-01-09 14:48:33.423,315.000000
2025-01-09 14:48:33.426,314.000000
2025-01-09 14:48:33.443,317.000000
2025-01-09 14:48:33.446,318.000000
2025-01-09 14:48:33.463,315.000000
2025-01-09 14:48:33.466,317.000000
2025-01-09 14:48:33.483,317.000000
2025-01-09 14:48:33.486,320.000000
2025-01-09 14:48:33.504,317.000000
2025-01-09 14:48:33.508,320.000000
2025-01-09 14:48:33.523,316.000000
2025-01-09 14:48:33.533,320.000000
2025-01-09 14:48:33.543,317.000000
2025-01-09 14:48:33.555,319.000000
2025-01-09 14:48:33.565,321.000000
2025-01-09 14:48:33.575,331.000000
2025-01-09 14:48:33.586,329.000000
2025-01-09 14:48:33.596,342.000000
2025-01-09 14:48:33.610,341.000000
2025-01-09 14:48:33.615,329.000000
2025-01-09 14:48:33.625,325.000000
2025-01-09 14:48:33.635,324.000000
2025-01-09 14:48:33.643,314.000000
2025-01-09 14:48:33.655,318.000000
2025-01-09 14:48:33.671,315.000000
2025-01-09 14:48:33.685,319.000000
2025-01-09 14:48:33.689,292.000000
2025-01-09 14:48:33.697,288.000000
2025-01-09 14:48:33.707,320.000000
2025-01-09 14:48:33.718,502.000000
2025-01-09 14:48:33.729,481.000000
2025-01-09 14:48:33.740,135.000000
2025-01-09 14:48:33.748,96.000000
2025-01-09 14:48:33.758,199.000000
2025-01-09 14:48:33.768,263.000000
2025-01-09 14:48:33.779,341.000000
2025-01-09 14:48:33.790,340.000000
2025-01-09 14:48:33.806,347.000000
2025-01-09 14:48:33.813,350.000000
2025-01-09 14:48:33.819,353.000000
2025-01-09 14:48:33.830,356.000000
2025-01-09 14:48:33.841,360.000000
2025-01-09 14:48:33.860,365.000000
2025-01-09 14:48:33.865,368.000000
2025-01-09 14:48:33.871,373.000000
2025-01-09 14:48:33.880,382.000000
2025-01-09 14:48:33.891,390.000000
2025-01-09 14:48:33.901,396.000000
2025-01-09 14:48:33.911,406.000000
2025-01-09 14:48:33.922,406.000000
2025-01-09 14:48:33.931,408.000000
2025-01-09 14:48:33.941,399.000000
2025-01-09 14:48:33.951,388.000000
2025-01-09 14:48:33.961,367.000000
2025-01-09 14:48:33.972,352.000000
2025-01-09 14:48:33.981,333.000000
2025-01-09 14:48:33.992,323.000000
2025-01-09 14:48:34.002,312.000000
2025-01-09 14:48:34.022,313.000000
2025-01-09 14:48:34.028,304.000000
2025-01-09 14:48:34.042,310.000000
2025-01-09 14:48:34.047,307.000000
2025-01-09 14:48:34.061,312.000000
2025-01-09 14:48:34.067,311.000000
2025-01-09 14:48:34.082,315.000000
2025-01-09 14:48:34.089,312.000000
2025-01-09 14:48:34.103,318.000000
2025-01-09 14:48:34.116,313.000000
2025-01-09 14:48:34.123,318.000000
2025-01-09 14:48:34.130,316.000000
2025-01-09 14:48:34.144,318.000000
2025-01-09 14:48:34.150,317.000000
2025-01-09 14:48:34.165,317.000000
2025-01-09 14:48:34.170,316.000000
2025-01-09 14:48:34.184,318.000000
2025-01-09 14:48:34.190,317.000000
2025-01-09 14:48:34.204,319.000000
2025-01-09 14:48:34.210,324.000000
2025-01-09 14:48:34.224,332.000000
2025-01-09 14:48:34.235,328.000000
2025-01-09 14:48:34.245,340.000000
2025-01-09 14:48:34.251,341.000000
2025-01-09 14:48:34.266,325.000000
2025-01-09 14:48:34.272,330.000000
2025-01-09 14:48:34.286,320.000000
2025-01-09 14:48:34.296,321.000000
2025-01-09 14:48:34.307,317.000000
2025-01-09 14:48:34.312,321.000000
2025-01-09 14:48:34.327,313.000000
2025-01-09 14:48:34.337,298.000000
2025-01-09 14:48:34.347,287.000000
2025-01-09 14:48:34.358,345.000000
2025-01-09 14:48:34.368,513.000000
2025-01-09 14:48:34.379,419.000000
2025-01-09 14:48:34.392,138.000000
2025-01-09 14:48:34.398,118.000000
2025-01-09 14:48:34.409,198.000000
2025-01-09 14:48:34.419,275.000000
2025-01-09 14:48:34.428,337.000000
2025-01-09 14:48:34.440,343.000000
2025-01-09 14:48:34.449,347.000000
2025-01-09 14:48:34.459,356.000000
2025-01-09 14:48:34.469,353.000000
2025-01-09 14:48:34.480,361.000000
2025-01-09 14:48:34.489,361.000000
2025-01-09 14:48:34.500,367.000000
2025-01-09 14:48:34.509,367.000000
2025-01-09 14:48:34.521,379.000000
2025-01-09 14:48:34.530,381.000000
2025-01-09 14:48:34.541,392.000000
2025-01-09 14:48:34.551,399.000000
2025-01-09 14:48:34.562,407.000000
2025-01-09 14:48:34.581,407.000000
2025-01-09 14:48:34.586,408.000000
2025-01-09 14:48:34.591,403.000000
2025-01-09 14:48:34.602,387.000000
2025-01-09 14:48:34.612,372.000000
2025-01-09 14:48:34.623,352.000000
2025-01-09 14:48:34.632,338.000000
2025-01-09 14:48:34.643,326.000000
2025-01-09 14:48:34.652,321.000000
2025-01-09 14:48:34.663,317.000000
2025-01-09 14:48:34.673,313.000000
2025-01-09 14:48:34.683,310.000000
2025-01-09 14:48:34.693,314.000000
2025-01-09 14:48:34.703,313.000000
2025-01-09 14:48:34.713,319.000000
2025-01-09 14:48:34.728,314.000000
2025-01-09 14:48:34.744,320.000000
2025-01-09 14:48:34.748,318.000000
2025-01-09 14:48:34.755,323.000000
2025-01-09 14:48:34.764,317.000000
2025-01-09 14:48:34.775,324.000000
2025-01-09 14:48:34.785,319.000000
2025-01-09 14:48:34.795,323.000000
2025-01-09 14:48:34.806,315.000000
2025-01-09 14:48:34.816,324.000000
2025-01-09 14:48:34.826,318.000000
2025-01-09 14:48:34.836,323.000000
2025-01-09 14:48:34.846,327.000000
2025-01-09 14:48:34.856,335.000000
2025-01-09 14:48:34.867,329.000000
2025-01-09 14:48:34.877,349.000000
2025-01-09 14:48:34.888,338.000000
2025-01-09 14:48:34.897,333.000000
2025-01-09 14:48:34.908,325.000000
2025-01-09 14:48:34.917,322.000000
2025-01-09 14:48:34.928,321.000000
2025-01-09 14:48:34.938,321.000000
2025-01-09 14:48:34.949,319.000000
2025-01-09 14:48:34.959,316.000000
2025-01-09 14:48:34.969,298.000000
2025-01-09 14:48:34.985,301.000000
2025-01-09 14:48:35.000,373.000000
2025-01-09 14:48:35.003,515.000000
2025-01-09 14:48:35.011,365.000000
2025-01-09 14:48:35.021,163.000000
2025-01-09 14:48:35.030,130.000000
2025-01-09 14:48:35.041,203.000000
2025-01-09 14:48:35.051,272.000000
2025-01-09 14:48:35.061,338.000000
2025-01-09 14:48:35.082,344.000000
2025-01-09 14:48:35.086,348.000000
2025-01-09 14:48:35.101,356.000000
2025-01-09 14:48:35.104,353.000000
2025-01-09 14:48:35.121,360.000000
2025-01-09 14:48:35.130,364.000000
2025-01-09 14:48:35.141,365.000000
2025-01-09 14:48:35.151,366.000000
2025-01-09 14:48:35.160,376.000000
2025-01-09 14:48:35.171,380.000000
2025-01-09 14:48:35.181,390.000000
2025-01-09 14:48:35.191,390.000000
2025-01-09 14:48:35.201,402.000000
2025-01-09 14:48:35.211,400.000000
2025-01-09 14:48:35.223,403.000000
2025-01-09 14:48:35.231,395.000000
2025-01-09 14:48:35.242,385.000000
2025-01-09 14:48:35.252,366.000000
2025-01-09 14:48:35.262,352.000000
2025-01-09 14:48:35.272,338.000000
2025-01-09 14:48:35.292,329.000000
2025-01-09 14:48:35.294,319.000000
2025-01-09 14:48:35.302,319.000000
2025-01-09 14:48:35.312,317.000000
2025-01-09 14:48:35.323,318.000000
2025-01-09 14:48:35.336,316.000000
2025-01-09 14:48:35.343,316.000000
2025-01-09 14:48:35.353,319.000000
2025-01-09 14:48:35.362,317.000000
2025-01-09 14:48:35.373,319.000000
2025-01-09 14:48:35.382,318.000000
2025-01-09 14:48:35.392,321.000000
2025-01-09 14:48:35.402,319.000000
2025-01-09 14:48:35.412,320.000000
2025-01-09 14:48:35.422,318.000000
2025-01-09 14:48:35.442,320.000000
2025-01-09 14:48:35.445,319.000000
2025-01-09 14:48:35.461,320.000000
2025-01-09 14:48:35.464,317.000000
2025-01-09 14:48:35.482,325.000000
2025-01-09 14:48:35.485,326.000000
2025-01-09 14:48:35.502,333.000000
2025-01-09 14:48:35.512,337.000000
2025-01-09 14:48:35.523,347.000000
2025-01-09 14:48:35.532,326.000000
2025-01-09 14:48:35.542,332.000000
2025-01-09 14:48:35.552,318.000000
2025-01-09 14:48:35.561,322.000000
2025-01-09 14:48:35.572,317.000000
2025-01-09 14:48:35.582,322.000000
2025-01-09 14:48:35.592,316.000000
2025-01-09 14:48:35.603,302.000000
2025-01-09 14:48:35.613,292.000000
2025-01-09 14:48:35.622,315.000000
2025-01-09 14:48:35.632,448.000000
2025-01-09 14:48:35.643,487.000000
2025-01-09 14:48:35.654,231.000000
2025-01-09 14:48:35.663,104.000000
2025-01-09 14:48:35.673,177.000000
2025-01-09 14:48:35.683,239.000000
2025-01-09 14:48:35.693,319.000000
2025-01-09 14:48:35.711,346.000000
2025-01-09 14:48:35.714,344.000000
2025-01-09 14:48:35.733,351.000000
2025-01-09 14:48:35.735,354.000000
2025-01-09 14:48:35.744,356.000000
2025-01-09 14:48:35.754,360.000000
2025-01-09 14:48:35.764,362.000000
2025-01-09 14:48:35.774,370.000000
2025-01-09 14:48:35.784,372.000000
2025-01-09 14:48:35.794,379.000000
2025-01-09 14:48:35.804,384.000000
2025-01-09 14:48:35.815,396.000000
2025-01-09 14:48:35.825,396.000000
2025-01-09 14:48:35.836,405.000000
2025-01-09 14:48:35.845,401.000000
2025-01-09 14:48:35.864,402.000000
2025-01-09 14:48:35.869,387.000000
2025-01-09 14:48:35.885,373.000000
2025-01-09 14:48:35.890,352.000000
2025-01-09 14:48:35.906,342.000000
2025-01-09 14:48:35.911,325.000000
2025-01-09 14:48:35.926,324.000000
2025-01-09 14:48:35.930,313.000000
2025-01-09 14:48:35.956,316.000000
2025-01-09 14:48:35.960,312.000000
2025-01-09 14:48:35.966,315.000000
2025-01-09 14:48:35.970,312.000000
2025-01-09 14:48:35.987,316.000000
2025-01-09 14:48:35.991,313.000000
2025-01-09 14:48:36.007,318.000000
2025-01-09 14:48:36.011,315.000000
2025-01-09 14:48:36.028,318.000000
2025-01-09 14:48:36.032,318.000000
2025-01-09 14:48:36.049,321.000000
2025-01-09 14:48:36.053,317.000000
2025-01-09 14:48:36.079,320.000000
2025-01-09 14:48:36.083,319.000000
2025-01-09 14:48:36.089,319.000000
2025-01-09 14:48:36.093,318.000000
2025-01-09 14:48:36.110,318.000000
2025-01-09 14:48:36.113,321.000000
2025-01-09 14:48:36.130,326.000000
2025-01-09 14:48:36.141,332.000000
2025-01-09 14:48:36.150,329.000000
2025-01-09 14:48:36.161,349.000000
2025-01-09 14:48:36.171,328.000000
2025-01-09 14:48:36.181,329.000000
2025-01-09 14:48:36.194,322.000000
2025-01-09 14:48:36.201,321.000000
2025-01-09 14:48:36.210,315.000000
2025-01-09 14:48:36.221,321.000000
2025-01-09 14:48:36.231,316.000000
2025-01-09 14:48:36.242,308.000000
2025-01-09 14:48:36.251,287.000000
2025-01-09 14:48:36.262,300.000000
2025-01-09 14:48:36.271,416.000000
2025-01-09 14:48:36.283,541.000000
2025-01-09 14:48:36.298,257.000000
2025-01-09 14:48:36.303,97.000000
2025-01-09 14:48:36.313,162.000000
2025-01-09 14:48:36.324,233.000000
2025-01-09 14:48:36.334,312.000000
2025-01-09 14:48:36.344,349.000000
2025-01-09 14:48:36.354,341.000000
2025-01-09 14:48:36.375,354.000000
2025-01-09 14:48:36.380,351.000000
2025-01-09 14:48:36.386,360.000000
2025-01-09 14:48:36.402,358.000000
2025-01-09 14:48:36.408,365.000000
2025-01-09 14:48:36.415,367.000000
2025-01-09 14:48:36.426,373.000000
2025-01-09 14:48:36.435,378.000000
2025-01-09 14:48:36.456,386.000000
2025-01-09 14:48:36.460,395.000000
2025-01-09 14:48:36.467,401.000000
2025-01-09 14:48:36.476,406.000000
2025-01-09 14:48:36.486,409.000000
2025-01-09 14:48:36.496,405.000000
2025-01-09 14:48:36.507,393.000000
2025-01-09 14:48:36.517,378.000000
2025-01-09 14:48:36.537,359.000000
2025-01-09 14:48:36.541,342.000000
2025-01-09 14:48:36.548,328.000000
2025-01-09 14:48:36.558,320.000000
2025-01-09 14:48:36.569,312.000000
2025-01-09 14:48:36.579,314.000000
2025-01-09 14:48:36.589,307.000000
2025-01-09 14:48:36.600,314.000000
2025-01-09 14:48:36.610,310.000000
2025-01-09 14:48:36.620,315.000000
2025-01-09 14:48:36.630,312.000000
2025-01-09 14:48:36.640,319.000000
2025-01-09 14:48:36.651,314.000000
2025-01-09 14:48:36.661,320.000000
2025-01-09 14:48:36.672,316.000000
2025-01-09 14:48:36.681,320.000000
2025-01-09 14:48:36.692,315.000000
2025-01-09 14:48:36.702,321.000000
2025-01-09 14:48:36.711,317.000000
2025-01-09 14:48:36.722,320.000000
2025-01-09 14:48:36.741,316.000000
2025-01-09 14:48:36.746,321.000000
2025-01-09 14:48:36.753,324.000000
2025-01-09 14:48:36.771,332.000000
2025-01-09 14:48:36.778,327.000000
2025-01-09 14:48:36.784,346.000000
2025-01-09 14:48:36.805,335.000000
2025-01-09 14:48:36.815,327.000000
2025-01-09 14:48:36.821,323.000000
2025-01-09 14:48:36.828,321.000000
2025-01-09 14:48:36.835,316.000000
2025-01-09 14:48:36.846,320.000000
2025-01-09 14:48:36.865,319.000000
2025-01-09 14:48:36.872,309.000000
2025-01-09 14:48:36.885,290.000000
2025-01-09 14:48:36.892,286.000000
2025-01-09 14:48:36.905,378.000000
2025-01-09 14:48:36.910,551.000000
2025-01-09 14:48:36.919,346.000000
2025-01-09 14:48:36.926,104.000000
2025-01-09 14:48:36.944,142.000000
2025-01-09 14:48:36.950,213.000000
2025-01-09 14:48:36.964,299.000000
2025-01-09 14:48:36.985,344.000000
2025-01-09 14:48:36.991,345.000000
2025-01-09 14:48:36.996,351.000000
2025-01-09 14:48:37.006,356.000000
2025-01-09 14:48:37.015,352.000000
2025-01-09 14:48:37.027,363.000000
2025-01-09 14:48:37.036,362.000000
2025-01-09 14:48:37.045,369.000000
2025-01-09 14:48:37.056,371.000000
2025-01-09 14:48:37.066,382.000000
2025-01-09 14:48:37.079,383.000000
2025-01-09 14:48:37.090,398.000000
2025-01-09 14:48:37.096,400.000000
2025-01-09 14:48:37.107,407.000000
2025-01-09 14:48:37.116,406.000000
2025-01-09 14:48:37.127,412.000000
2025-01-09 14:48:37.138,395.000000
2025-01-09 14:48:37.146,383.000000
2025-01-09 14:48:37.157,365.000000
2025-01-09 14:48:37.169,346.000000
2025-01-09 14:48:37.177,333.000000
2025-01-09 14:48:37.188,326.000000
2025-01-09 14:48:37.197,316.000000
2025-01-09 14:48:37.209,314.000000
2025-01-09 14:48:37.218,315.000000
2025-01-09 14:48:37.230,310.000000
2025-01-09 14:48:37.239,311.000000
2025-01-09 14:48:37.249,314.000000
2025-01-09 14:48:37.259,316.000000
2025-01-09 14:48:37.269,316.000000
2025-01-09 14:48:37.279,318.000000
2025-01-09 14:48:37.291,316.000000
2025-01-09 14:48:37.300,320.000000
2025-01-09 14:48:37.315,319.000000
2025-01-09 14:48:37.326,318.000000
2025-01-09 14:48:37.330,318.000000
2025-01-09 14:48:37.341,321.000000
2025-01-09 14:48:37.351,317.000000
2025-01-09 14:48:37.367,322.000000
2025-01-09 14:48:37.370,317.000000
2025-01-09 14:48:37.381,327.000000
2025-01-09 14:48:37.391,330.000000
2025-01-09 14:48:37.401,333.000000
2025-01-09 14:48:37.411,343.000000
2025-01-09 14:48:37.422,338.000000
2025-01-09 14:48:37.432,327.000000
2025-01-09 14:48:37.452,327.000000
2025-01-09 14:48:37.455,319.000000
2025-01-09 14:48:37.463,318.000000
2025-01-09 14:48:37.474,316.000000
2025-01-09 14:48:37.494,321.000000
2025-01-09 14:48:37.496,309.000000
2025-01-09 14:48:37.505,295.000000
2025-01-09 14:48:37.524,290.000000
2025-01-09 14:48:37.527,380.000000
2025-01-09 14:48:37.534,523.000000
2025-01-09 14:48:37.544,345.000000
2025-01-09 14:48:37.555,134.000000
2025-01-09 14:48:37.565,137.000000
2025-01-09 14:48:37.575,210.000000
2025-01-09 14:48:37.585,280.000000
2025-01-09 14:48:37.606,341.000000
2025-01-09 14:48:37.610,342.000000
2025-01-09 14:48:37.616,349.000000
2025-01-09 14:48:37.627,352.000000
2025-01-09 14:48:37.636,355.000000
2025-01-09 14:48:37.647,359.000000
2025-01-09 14:48:37.667,364.000000
2025-01-09 14:48:37.671,363.000000
2025-01-09 14:48:37.696,372.000000
2025-01-09 14:48:37.699,377.000000
2025-01-09 14:48:37.703,382.000000
2025-01-09 14:48:37.709,390.000000
2025-01-09 14:48:37.728,398.000000
2025-01-09 14:48:37.731,397.000000
2025-01-09 14:48:37.748,409.000000
2025-01-09 14:48:37.751,403.000000
2025-01-09 14:48:37.771,396.000000
2025-01-09 14:48:37.776,378.000000
2025-01-09 14:48:37.788,369.000000
2025-01-09 14:48:37.790,345.000000
2025-01-09 14:48:37.808,338.000000
2025-01-09 14:48:37.819,322.000000
2025-01-09 14:48:37.829,321.000000
2025-01-09 14:48:37.839,312.000000
2025-01-09 14:48:37.849,314.000000
2025-01-09 14:48:37.860,312.000000
2025-01-09 14:48:37.870,318.000000
2025-01-09 14:48:37.879,310.000000
2025-01-09 14:48:37.890,317.000000
2025-01-09 14:48:37.900,316.000000
2025-01-09 14:48:37.910,318.000000
2025-01-09 14:48:37.921,314.000000
2025-01-09 14:48:37.941,321.000000
2025-01-09 14:48:37.947,315.000000
2025-01-09 14:48:37.955,317.000000
2025-01-09 14:48:37.962,317.000000
2025-01-09 14:48:37.971,318.000000
2025-01-09 14:48:37.983,317.000000
2025-01-09 14:48:37.994,317.000000
2025-01-09 14:48:38.002,325.000000
2025-01-09 14:48:38.017,325.000000
2025-01-09 14:48:38.024,329.000000
2025-01-09 14:48:38.032,345.000000
2025-01-09 14:48:38.042,335.000000
2025-01-09 14:48:38.052,326.000000
2025-01-09 14:48:38.062,326.000000
2025-01-09 14:48:38.072,316.000000
2025-01-09 14:48:38.082,319.000000
2025-01-09 14:48:38.092,316.000000
2025-01-09 14:48:38.112,321.000000
2025-01-09 14:48:38.117,311.000000
2025-01-09 14:48:38.123,296.000000
2025-01-09 14:48:38.132,287.000000
2025-01-09 14:48:38.142,353.000000
2025-01-09 14:48:38.152,507.000000
2025-01-09 14:48:38.162,404.000000
2025-01-09 14:48:38.172,165.000000
2025-01-09 14:48:38.192,120.000000
2025-01-09 14:48:38.196,199.000000
2025-01-09 14:48:38.211,262.000000
2025-01-09 14:48:38.215,331.000000
2025-01-09 14:48:38.232,346.000000
2025-01-09 14:48:38.236,343.000000
2025-01-09 14:48:38.252,354.000000
2025-01-09 14:48:38.262,352.000000
2025-01-09 14:48:38.282,358.000000
2025-01-09 14:48:38.287,358.000000
2025-01-09 14:48:38.293,366.000000
2025-01-09 14:48:38.303,367.000000
2025-01-09 14:48:38.312,372.000000
2025-01-09 14:48:38.324,379.000000
2025-01-09 14:48:38.333,387.000000
2025-01-09 14:48:38.343,393.000000
2025-01-09 14:48:38.353,398.000000
2025-01-09 14:48:38.374,402.000000
2025-01-09 14:48:38.378,401.000000
2025-01-09 14:48:38.384,395.000000
2025-01-09 14:48:38.393,381.000000
2025-01-09 14:48:38.403,365.000000
2025-01-09 14:48:38.413,348.000000
2025-01-09 14:48:38.425,336.000000
2025-01-09 14:48:38.434,324.000000
2025-01-09 14:48:38.445,320.000000
2025-01-09 14:48:38.461,312.000000
2025-01-09 14:48:38.465,315.000000
2025-01-09 14:48:38.476,313.000000
2025-01-09 14:48:38.486,313.000000
2025-01-09 14:48:38.496,311.000000
2025-01-09 14:48:38.509,319.000000
2025-01-09 14:48:38.526,313.000000
2025-01-09 14:48:38.533,318.000000
2025-01-09 14:48:38.541,316.000000
2025-01-09 14:48:38.548,321.000000
2025-01-09 14:48:38.563,315.000000
2025-01-09 14:48:38.569,320.000000
2025-01-09 14:48:38.576,317.000000
2025-01-09 14:48:38.585,321.000000
2025-01-09 14:48:38.595,316.000000
2025-01-09 14:48:38.616,320.000000
2025-01-09 14:48:38.623,317.000000
2025-01-09 14:48:38.629,325.000000
2025-01-09 14:48:38.640,325.000000
2025-01-09 14:48:38.649,332.000000
2025-01-09 14:48:38.660,334.000000
2025-01-09 14:48:38.670,347.000000
2025-01-09 14:48:38.680,327.000000
2025-01-09 14:48:38.691,329.000000
2025-01-09 14:48:38.701,321.000000
2025-01-09 14:48:38.721,320.000000
2025-01-09 14:48:38.727,318.000000
2025-01-09 14:48:38.734,317.000000
2025-01-09 14:48:38.742,319.000000
2025-01-09 14:48:38.751,300.000000
2025-01-09 14:48:38.761,292.000000
2025-01-09 14:48:38.771,299.000000
2025-01-09 14:48:38.781,444.000000
2025-01-09 14:48:38.792,527.000000
2025-01-09 14:48:38.802,215.000000
2025-01-09 14:48:38.812,85.000000
2025-01-09 14:48:38.844,183.000000
2025-01-09 14:48:38.850,238.000000
2025-01-09 14:48:38.857,327.000000
2025-01-09 14:48:38.864,343.000000
2025-01-09 14:48:38.870,344.000000
2025-01-09 14:48:38.877,348.000000
2025-01-09 14:48:38.884,355.000000
2025-01-09 14:48:38.895,354.000000
2025-01-09 14:48:38.904,362.000000
2025-01-09 14:48:38.924,362.000000
2025-01-09 14:48:38.930,370.000000
2025-01-09 14:48:38.936,372.000000
2025-01-09 14:48:38.953,384.000000
2025-01-09 14:48:38.958,387.000000
2025-01-09 14:48:38.974,398.000000
2025-01-09 14:48:38.993,400.000000
2025-01-09 14:48:38.997,411.000000
2025-01-09 14:48:39.005,407.000000
2025-01-09 14:48:39.015,406.000000
2025-01-09 14:48:39.036,388.000000
2025-01-09 14:48:39.042,374.000000
2025-01-09 14:48:39.048,353.000000
2025-01-09 14:48:39.056,337.000000
2025-01-09 14:48:39.076,323.000000
2025-01-09 14:48:39.082,318.000000
2025-01-09 14:48:39.087,309.000000
2025-01-09 14:48:39.096,308.000000
2025-01-09 14:48:39.110,306.000000
2025-01-09 14:48:39.116,309.000000
2025-01-09 14:48:39.127,311.000000
2025-01-09 14:48:39.137,312.000000
2025-01-09 14:48:39.147,315.000000
2025-01-09 14:48:39.157,316.000000
2025-01-09 14:48:39.167,315.000000
2025-01-09 14:48:39.178,316.000000
2025-01-09 14:48:39.188,318.000000
2025-01-09 14:48:39.208,318.000000
2025-01-09 14:48:39.213,319.000000
2025-01-09 14:48:39.219,317.000000
2025-01-09 14:48:39.228,320.000000
2025-01-09 14:48:39.239,317.000000
2025-01-09 14:48:39.249,321.000000
2025-01-09 14:48:39.259,316.000000
2025-01-09 14:48:39.269,322.000000
2025-01-09 14:48:39.279,318.000000
2025-01-09 14:48:39.291,328.000000
2025-01-09 14:48:39.299,326.000000
2025-01-09 14:48:39.310,332.000000
2025-01-09 14:48:39.319,335.000000
2025-01-09 14:48:39.330,345.000000
2025-01-09 14:48:39.341,325.000000
2025-01-09 14:48:39.351,330.000000
2025-01-09 14:48:39.361,320.000000
2025-01-09 14:48:39.370,322.000000
2025-01-09 14:48:39.380,317.000000
2025-01-09 14:48:39.390,323.000000
2025-01-09 14:48:39.401,318.000000
2025-01-09 14:48:39.411,299.000000
2025-01-09 14:48:39.421,288.000000
2025-01-09 14:48:39.432,335.000000
2025-01-09 14:48:39.443,510.000000
2025-01-09 14:48:39.453,444.000000
2025-01-09 14:48:39.463,138.000000
2025-01-09 14:48:39.473,114.000000
2025-01-09 14:48:39.493,200.000000
2025-01-09 14:48:39.499,272.000000
2025-01-09 14:48:39.506,345.000000
2025-01-09 14:48:39.513,345.000000
2025-01-09 14:48:39.524,353.000000
2025-01-09 14:48:39.534,356.000000
2025-01-09 14:48:39.553,360.000000
2025-01-09 14:48:39.559,359.000000
2025-01-09 14:48:39.566,367.000000
2025-01-09 14:48:39.574,367.000000
2025-01-09 14:48:39.584,376.000000
2025-01-09 14:48:39.594,375.000000
2025-01-09 14:48:39.604,388.000000
2025-01-09 14:48:39.614,392.000000
2025-01-09 14:48:39.625,403.000000
2025-01-09 14:48:39.634,407.000000
2025-01-09 14:48:39.654,415.000000
2025-01-09 14:48:39.660,409.000000
2025-01-09 14:48:39.684,407.000000
2025-01-09 14:48:39.690,386.000000
2025-01-09 14:48:39.696,373.000000
2025-01-09 14:48:39.706,350.000000
2025-01-09 14:48:39.714,339.000000
2025-01-09 14:48:39.724,320.000000
2025-01-09 14:48:39.739,319.000000
2025-01-09 14:48:39.753,309.000000
2025-01-09 14:48:39.760,310.000000
2025-01-09 14:48:39.767,308.000000
2025-01-09 14:48:39.776,312.000000
2025-01-09 14:48:39.785,309.000000
2025-01-09 14:48:39.794,315.000000
2025-01-09 14:48:39.805,313.000000
2025-01-09 14:48:39.816,317.000000
2025-01-09 14:48:39.826,318.000000
2025-01-09 14:48:39.834,319.000000
2025-01-09 14:48:39.851,316.000000
2025-01-09 14:48:39.858,319.000000
2025-01-09 14:48:39.866,321.000000
2025-01-09 14:48:39.885,320.000000
2025-01-09 14:48:39.894,320.000000
2025-01-09 14:48:39.902,320.000000
2025-01-09 14:48:39.910,321.000000
2025-01-09 14:48:39.916,317.000000
2025-01-09 14:48:39.926,321.000000
2025-01-09 14:48:39.936,319.000000
2025-01-09 14:48:39.946,324.000000
2025-01-09 14:48:39.961,328.000000
2025-01-09 14:48:39.968,332.000000
2025-01-09 14:48:39.976,333.000000
2025-01-09 14:48:39.986,347.000000
2025-01-09 14:48:39.997,324.000000
2025-01-09 14:48:40.007,330.000000
2025-01-09 14:48:40.017,320.000000
2025-01-09 14:48:40.033,321.000000
2025-01-09 14:48:40.041,317.000000
2025-01-09 14:48:40.051,323.000000
2025-01-09 14:48:40.067,317.000000
2025-01-09 14:48:40.074,303.000000
2025-01-09 14:48:40.095,296.000000
2025-01-09 14:48:40.101,334.000000
2025-01-09 14:48:40.109,479.000000
2025-01-09 14:48:40.115,445.000000
2025-01-09 14:48:40.128,187.000000
2025-01-09 14:48:40.134,114.000000
2025-01-09 14:48:40.150,196.000000
2025-01-09 14:48:40.156,253.000000
2025-01-09 14:48:40.169,329.000000
2025-01-09 14:48:40.175,348.000000
2025-01-09 14:48:40.200,346.000000
2025-01-09 14:48:40.208,355.000000
2025-01-09 14:48:40.216,356.000000
2025-01-09 14:48:40.224,361.000000
2025-01-09 14:48:40.232,362.000000
2025-01-09 14:48:40.238,368.000000
2025-01-09 14:48:40.251,370.000000
2025-01-09 14:48:40.261,375.000000
2025-01-09 14:48:40.276,386.000000
2025-01-09 14:48:40.282,392.000000
2025-01-09 14:48:40.292,401.000000
2025-01-09 14:48:40.298,407.000000
2025-01-09 14:48:40.312,410.000000
2025-01-09 14:48:40.319,407.000000
2025-01-09 14:48:40.332,404.000000
2025-01-09 14:48:40.339,389.000000
2025-01-09 14:48:40.352,376.000000
2025-01-09 14:48:40.362,354.000000
2025-01-09 14:48:40.372,345.000000
2025-01-09 14:48:40.385,328.000000
2025-01-09 14:48:40.392,324.000000
2025-01-09 14:48:40.404,316.000000
2025-01-09 14:48:40.413,312.000000
2025-01-09 14:48:40.423,313.000000
2025-01-09 14:48:40.433,315.000000
2025-01-09 14:48:40.444,311.000000
2025-01-09 14:48:40.453,319.000000
2025-01-09 14:48:40.464,314.000000
2025-01-09 14:48:40.478,318.000000
2025-01-09 14:48:40.485,318.000000
2025-01-09 14:48:40.495,321.000000
2025-01-09 14:48:40.505,317.000000
2025-01-09 14:48:40.516,321.000000
2025-01-09 14:48:40.525,317.000000
2025-01-09 14:48:40.535,319.000000
2025-01-09 14:48:40.546,319.000000
2025-01-09 14:48:40.556,320.000000
2025-01-09 14:48:40.566,318.000000
2025-01-09 14:48:40.576,320.000000
2025-01-09 14:48:40.592,321.000000
2025-01-09 14:48:40.606,323.000000
2025-01-09 14:48:40.613,326.000000
2025-01-09 14:48:40.619,332.000000
2025-01-09 14:48:40.631,329.000000
2025-01-09 14:48:40.644,344.000000
2025-01-09 14:48:40.651,336.000000
2025-01-09 14:48:40.658,325.000000
2025-01-09 14:48:40.677,324.000000
2025-01-09 14:48:40.683,320.000000
2025-01-09 14:48:40.691,322.000000
2025-01-09 14:48:40.697,319.000000
2025-01-09 14:48:40.714,323.000000
2025-01-09 14:48:40.720,312.000000
2025-01-09 14:48:40.729,303.000000
2025-01-09 14:48:40.747,297.000000
2025-01-09 14:48:40.753,388.000000
2025-01-09 14:48:40.767,508.000000
2025-01-09 14:48:40.774,340.000000
2025-01-09 14:48:40.796,142.000000
2025-01-09 14:48:40.803,144.000000
2025-01-09 14:48:40.809,208.000000
2025-01-09 14:48:40.816,285.000000
2025-01-09 14:48:40.829,340.000000
2025-01-09 14:48:40.835,348.000000
2025-01-09 14:48:40.850,347.000000
2025-01-09 14:48:40.864,357.000000
2025-01-09 14:48:40.871,355.000000
2025-01-09 14:48:40.882,361.000000
2025-01-09 14:48:40.890,360.000000
2025-01-09 14:48:40.910,367.000000
2025-01-09 14:48:40.916,369.000000
2025-01-09 14:48:40.927,378.000000
2025-01-09 14:48:40.934,382.000000
2025-01-09 14:48:40.942,393.000000
2025-01-09 14:48:40.951,398.000000
2025-01-09 14:48:40.962,402.000000
2025-01-09 14:48:40.980,403.000000
2025-01-09 14:48:40.986,404.000000
2025-01-09 14:48:40.996,394.000000
2025-01-09 14:48:41.003,380.000000
2025-01-09 14:48:41.021,361.000000
2025-01-09 14:48:41.028,347.000000
2025-01-09 14:48:41.042,335.000000
2025-01-09 14:48:41.048,322.000000
2025-01-09 14:48:41.055,320.000000
2025-01-09 14:48:41.065,313.000000
2025-01-09 14:48:41.076,314.000000
2025-01-09 14:48:41.083,310.000000
2025-01-09 14:48:41.093,315.000000
2025-01-09 14:48:41.103,314.000000
2025-01-09 14:48:41.112,315.000000
2025-01-09 14:48:41.122,315.000000
2025-01-09 14:48:41.133,320.000000
2025-01-09 14:48:41.143,315.000000
2025-01-09 14:48:41.152,321.000000
2025-01-09 14:48:41.163,317.000000
2025-01-09 14:48:41.173,321.000000
2025-01-09 14:48:41.192,315.000000
2025-01-09 14:48:41.198,322.000000
2025-01-09 14:48:41.204,315.000000
2025-01-09 14:48:41.215,323.000000
2025-01-09 14:48:41.228,316.000000
2025-01-09 14:48:41.245,322.000000
2025-01-09 14:48:41.251,318.000000
2025-01-09 14:48:41.258,330.000000
2025-01-09 14:48:41.265,330.000000
2025-01-09 14:48:41.275,332.000000
2025-01-09 14:48:41.285,344.000000
2025-01-09 14:48:41.305,336.000000
2025-01-09 14:48:41.311,327.000000
2025-01-09 14:48:41.317,326.000000
2025-01-09 14:48:41.325,321.000000
2025-01-09 14:48:41.335,322.000000
2025-01-09 14:48:41.346,319.000000
2025-01-09 14:48:41.357,319.000000
2025-01-09 14:48:41.365,315.000000
2025-01-09 14:48:41.375,296.000000
2025-01-09 14:48:41.387,292.000000
2025-01-09 14:48:41.406,380.000000
2025-01-09 14:48:41.415,544.000000
2025-01-09 14:48:41.422,335.000000
2025-01-09 14:48:41.430,109.000000
2025-01-09 14:48:41.438,149.000000
2025-01-09 14:48:41.446,219.000000
2025-01-09 14:48:41.466,298.000000
2025-01-09 14:48:41.476,351.000000
2025-01-09 14:48:41.486,344.000000
2025-01-09 14:48:41.496,354.000000
2025-01-09 14:48:41.510,352.000000
2025-01-09 14:48:41.517,361.000000
2025-01-09 14:48:41.535,359.000000
2025-01-09 14:48:41.543,366.000000
2025-01-09 14:48:41.551,366.000000
2025-01-09 14:48:41.559,376.000000
2025-01-09 14:48:41.568,377.000000
2025-01-09 14:48:41.578,390.000000
2025-01-09 14:48:41.589,395.000000
2025-01-09 14:48:41.611,407.000000
2025-01-09 14:48:41.619,407.000000
2025-01-09 14:48:41.628,414.000000
2025-01-09 14:48:41.637,407.000000
2025-01-09 14:48:41.646,403.000000
2025-01-09 14:48:41.654,380.000000
2025-01-09 14:48:41.670,364.000000
2025-01-09 14:48:41.679,344.000000
2025-01-09 14:48:41.686,332.000000
2025-01-09 14:48:41.695,318.000000
2025-01-09 14:48:41.703,315.000000
2025-01-09 14:48:41.712,310.000000
2025-01-09 14:48:41.724,311.000000
2025-01-09 14:48:41.737,310.000000
2025-01-09 14:48:41.748,311.000000
2025-01-09 14:48:41.756,311.000000
2025-01-09 14:48:41.765,313.000000
2025-01-09 14:48:41.774,316.000000
2025-01-09 14:48:41.790,315.000000
2025-01-09 14:48:41.797,318.000000
2025-01-09 14:48:41.806,316.000000
2025-01-09 14:48:41.815,320.000000
2025-01-09 14:48:41.825,316.000000
2025-01-09 14:48:41.834,322.000000
2025-01-09 14:48:41.852,317.000000
2025-01-09 14:48:41.860,320.000000
2025-01-09 14:48:41.867,316.000000
2025-01-09 14:48:41.875,321.000000
2025-01-09 14:48:41.884,317.000000
2025-01-09 14:48:41.904,322.000000
2025-01-09 14:48:41.912,321.000000
2025-01-09 14:48:41.919,331.000000
2025-01-09 14:48:41.935,327.000000
2025-01-09 14:48:41.942,341.000000
2025-01-09 14:48:41.950,338.000000
2025-01-09 14:48:41.958,329.000000
2025-01-09 14:48:41.966,326.000000
2025-01-09 14:48:41.976,324.000000
2025-01-09 14:48:41.987,318.000000
2025-01-09 14:48:41.997,321.000000
2025-01-09 14:48:42.007,318.000000
2025-01-09 14:48:42.017,319.000000
2025-01-09 14:48:42.028,296.000000
2025-01-09 14:48:42.038,291.000000
2025-01-09 14:48:42.048,346.000000
2025-01-09 14:48:42.066,527.000000
2025-01-09 14:48:42.073,407.000000
2025-01-09 14:48:42.082,130.000000
2025-01-09 14:48:42.090,123.000000
2025-01-09 14:48:42.109,206.000000
2025-01-09 14:48:42.116,279.000000
2025-01-09 14:48:42.122,346.000000
2025-01-09 14:48:42.130,344.000000
2025-01-09 14:48:42.139,350.000000
2025-01-09 14:48:42.149,355.000000
2025-01-09 14:48:42.169,358.000000
2025-01-09 14:48:42.175,360.000000
2025-01-09 14:48:42.189,363.000000
2025-01-09 14:48:42.195,371.000000
2025-01-09 14:48:42.209,371.000000
2025-01-09 14:48:42.216,381.000000
2025-01-09 14:48:42.230,387.000000
2025-01-09 14:48:42.235,397.000000
2025-01-09 14:48:42.249,402.000000
2025-01-09 14:48:42.254,411.000000
2025-01-09 14:48:42.270,409.000000
2025-01-09 14:48:42.276,416.000000
2025-01-09 14:48:42.291,402.000000
2025-01-09 14:48:42.297,390.000000
2025-01-09 14:48:42.312,369.000000
2025-01-09 14:48:42.317,350.000000
2025-01-09 14:48:42.331,330.000000
2025-01-09 14:48:42.336,324.000000
2025-01-09 14:48:42.352,311.000000
2025-01-09 14:48:42.357,313.000000
2025-01-09 14:48:42.372,305.000000
2025-01-09 14:48:42.378,310.000000
2025-01-09 14:48:42.403,306.000000
2025-01-09 14:48:42.408,314.000000
2025-01-09 14:48:42.416,310.000000
2025-01-09 14:48:42.423,315.000000
2025-01-09 14:48:42.433,313.000000
2025-01-09 14:48:42.437,316.000000
2025-01-09 14:48:42.455,313.000000
2025-01-09 14:48:42.461,320.000000
2025-01-09 14:48:42.475,315.000000
2025-01-09 14:48:42.483,317.000000
2025-01-09 14:48:42.494,317.000000
2025-01-09 14:48:42.515,317.000000
2025-01-09 14:48:42.519,318.000000
2025-01-09 14:48:42.525,318.000000
2025-01-09 14:48:42.535,315.000000
2025-01-09 14:48:42.553,320.000000
2025-01-09 14:48:42.560,324.000000
2025-01-09 14:48:42.566,327.000000
2025-01-09 14:48:42.578,328.000000
2025-01-09 14:48:42.587,344.000000
2025-01-09 14:48:42.603,333.000000
2025-01-09 14:48:42.618,326.000000
2025-01-09 14:48:42.622,323.000000
2025-01-09 14:48:42.629,319.000000
2025-01-09 14:48:42.638,321.000000
2025-01-09 14:48:42.648,315.000000
2025-01-09 14:48:42.658,323.000000
2025-01-09 14:48:42.668,308.000000
2025-01-09 14:48:42.678,300.000000
2025-01-09 14:48:42.688,294.000000
2025-01-09 14:48:42.697,389.000000
2025-01-09 14:48:42.708,516.000000
2025-01-09 14:48:42.718,321.000000
2025-01-09 14:48:42.728,122.000000
2025-01-09 14:48:42.739,150.000000
2025-01-09 14:48:42.749,212.000000
2025-01-09 14:48:42.760,293.000000
2025-01-09 14:48:42.770,344.000000
2025-01-09 14:48:42.779,347.000000
2025-01-09 14:48:42.790,347.000000
2025-01-09 14:48:42.799,354.000000
2025-01-09 14:48:42.811,356.000000
2025-01-09 14:48:42.820,361.000000
2025-01-09 14:48:42.831,363.000000
2025-01-09 14:48:42.842,369.000000
2025-01-09 14:48:42.854,373.000000
2025-01-09 14:48:42.861,380.000000
2025-01-09 14:48:42.872,386.000000
2025-01-09 14:48:42.882,396.000000
2025-01-09 14:48:42.893,402.000000
2025-01-09 14:48:42.902,401.000000
2025-01-09 14:48:42.912,409.000000
2025-01-09 14:48:42.922,406.000000
2025-01-09 14:48:42.932,400.000000
2025-01-09 14:48:42.943,380.000000
2025-01-09 14:48:42.953,368.000000
2025-01-09 14:48:42.963,346.000000
2025-01-09 14:48:42.974,334.000000
2025-01-09 14:48:42.983,323.000000
2025-01-09 14:48:42.993,318.000000
2025-01-09 14:48:43.012,310.000000
2025-01-09 14:48:43.016,315.000000
2025-01-09 14:48:43.032,309.000000
2025-01-09 14:48:43.036,311.000000
2025-01-09 14:48:43.053,312.000000
2025-01-09 14:48:43.057,319.000000
2025-01-09 14:48:43.074,311.000000
2025-01-09 14:48:43.078,318.000000
2025-01-09 14:48:43.103,312.000000
2025-01-09 14:48:43.107,319.000000
2025-01-09 14:48:43.113,312.000000
2025-01-09 14:48:43.117,320.000000
2025-01-09 14:48:43.134,315.000000
2025-01-09 14:48:43.140,318.000000
2025-01-09 14:48:43.156,315.000000
2025-01-09 14:48:43.164,320.000000
2025-01-09 14:48:43.174,317.000000
2025-01-09 14:48:43.179,322.000000
2025-01-09 14:48:43.195,323.000000
2025-01-09 14:48:43.200,332.000000
2025-01-09 14:48:43.216,329.000000
2025-01-09 14:48:43.226,346.000000
2025-01-09 14:48:43.238,332.000000
2025-01-09 14:48:43.246,329.000000
2025-01-09 14:48:43.257,322.000000
2025-01-09 14:48:43.266,321.000000
2025-01-09 14:48:43.287,321.000000
2025-01-09 14:48:43.294,317.000000
2025-01-09 14:48:43.300,320.000000
2025-01-09 14:48:43.309,312.000000
2025-01-09 14:48:43.318,297.000000
2025-01-09 14:48:43.329,296.000000
2025-01-09 14:48:43.342,385.000000
2025-01-09 14:48:43.349,511.000000
2025-01-09 14:48:43.359,338.000000
2025-01-09 14:48:43.370,141.000000
2025-01-09 14:48:43.379,143.000000
2025-01-09 14:48:43.390,210.000000
2025-01-09 14:48:43.402,284.000000
2025-01-09 14:48:43.411,339.000000
2025-01-09 14:48:43.419,346.000000
2025-01-09 14:48:43.430,345.000000
2025-01-09 14:48:43.440,353.000000
2025-01-09 14:48:43.450,352.000000
2025-01-09 14:48:43.469,363.000000
2025-01-09 14:48:43.476,359.000000
2025-01-09 14:48:43.482,366.000000
2025-01-09 14:48:43.492,367.000000
2025-01-09 14:48:43.501,378.000000
2025-01-09 14:48:43.512,379.000000
2025-01-09 14:48:43.521,392.000000
2025-01-09 14:48:43.532,394.000000
2025-01-09 14:48:43.544,403.000000
2025-01-09 14:48:43.553,401.000000
2025-01-09 14:48:43.562,402.000000
2025-01-09 14:48:43.573,391.000000
2025-01-09 14:48:43.583,378.000000
2025-01-09 14:48:43.593,360.000000
2025-01-09 14:48:43.602,349.000000
2025-01-09 14:48:43.614,331.000000
2025-01-09 14:48:43.624,322.000000
2025-01-09 14:48:43.633,315.000000
2025-01-09 14:48:43.643,312.000000
2025-01-09 14:48:43.653,312.000000
2025-01-09 14:48:43.664,311.000000
2025-01-09 14:48:43.675,315.000000
2025-01-09 14:48:43.695,315.000000
2025-01-09 14:48:43.701,317.000000
2025-01-09 14:48:43.708,315.000000
2025-01-09 14:48:43.716,320.000000
2025-01-09 14:48:43.726,318.000000
2025-01-09 14:48:43.735,322.000000
2025-01-09 14:48:43.755,320.000000
2025-01-09 14:48:43.763,323.000000
2025-01-09 14:48:43.784,319.000000
2025-01-09 14:48:43.791,324.000000
2025-01-09 14:48:43.799,319.000000
2025-01-09 14:48:43.806,322.000000
2025-01-09 14:48:43.814,318.000000
2025-01-09 14:48:43.825,321.000000
2025-01-09 14:48:43.841,320.000000
2025-01-09 14:48:43.848,331.000000
2025-01-09 14:48:43.858,328.000000
2025-01-09 14:48:43.868,335.000000
2025-01-09 14:48:43.877,346.000000
2025-01-09 14:48:43.891,328.000000
2025-01-09 14:48:43.900,327.000000
2025-01-09 14:48:43.908,323.000000
2025-01-09 14:48:43.917,320.000000
2025-01-09 14:48:43.929,319.000000
2025-01-09 14:48:43.944,320.000000
2025-01-09 14:48:43.953,324.000000
2025-01-09 14:48:43.963,304.000000
2025-01-09 14:48:43.972,293.000000
2025-01-09 14:48:43.981,300.000000
2025-01-09 14:48:43.990,439.000000
2025-01-09 14:48:43.999,520.000000
2025-01-09 14:48:44.010,221.000000
2025-01-09 14:48:44.018,95.000000
2025-01-09 14:48:44.030,181.000000
2025-01-09 14:48:44.042,240.000000
2025-01-09 14:48:44.057,325.000000
2025-01-09 14:48:44.066,348.000000
2025-01-09 14:48:44.074,348.000000
2025-01-09 14:48:44.082,354.000000
2025-01-09 14:48:44.091,356.000000
2025-01-09 14:48:44.110,362.000000
2025-01-09 14:48:44.118,360.000000
2025-01-09 14:48:44.127,369.000000
2025-01-09 14:48:44.135,370.000000
2025-01-09 14:48:44.146,379.000000
2025-01-09 14:48:44.154,382.000000
2025-01-09 14:48:44.164,395.000000
2025-01-09 14:48:44.174,398.000000
2025-01-09 14:48:44.193,410.000000
2025-01-09 14:48:44.201,408.000000
2025-01-09 14:48:44.209,417.000000
2025-01-09 14:48:44.217,403.000000
2025-01-09 14:48:44.225,399.000000
2025-01-09 14:48:44.233,374.000000
2025-01-09 14:48:44.243,360.000000
2025-01-09 14:48:44.253,338.000000
2025-01-09 14:48:44.265,331.000000
2025-01-09 14:48:44.284,316.000000
2025-01-09 14:48:44.290,316.000000
2025-01-09 14:48:44.297,309.000000
2025-01-09 14:48:44.304,312.000000
2025-01-09 14:48:44.323,309.000000
2025-01-09 14:48:44.330,314.000000
2025-01-09 14:48:44.340,313.000000
2025-01-09 14:48:44.354,316.000000
2025-01-09 14:48:44.362,314.000000
2025-01-09 14:48:44.370,317.000000
2025-01-09 14:48:44.379,316.000000
2025-01-09 14:48:44.389,318.000000
2025-01-09 14:48:44.398,320.000000
2025-01-09 14:48:44.407,318.000000
2025-01-09 14:48:44.415,320.000000
2025-01-09 14:48:44.435,320.000000
2025-01-09 14:48:44.444,321.000000
2025-01-09 14:48:44.453,318.000000
2025-01-09 14:48:44.465,319.000000
2025-01-09 14:48:44.476,321.000000
2025-01-09 14:48:44.484,326.000000
2025-01-09 14:48:44.497,329.000000
2025-01-09 14:48:44.505,332.000000
2025-01-09 14:48:44.517,343.000000
2025-01-09 14:48:44.525,338.000000
2025-01-09 14:48:44.537,327.000000
2025-01-09 14:48:44.545,328.000000
2025-01-09 14:48:44.557,319.000000
2025-01-09 14:48:44.565,322.000000
2025-01-09 14:48:44.578,316.000000
2025-01-09 14:48:44.585,321.000000
2025-01-09 14:48:44.597,311.000000
2025-01-09 14:48:44.605,297.000000
2025-01-09 14:48:44.617,288.000000
2025-01-09 14:48:44.624,374.000000
2025-01-09 14:48:44.638,540.000000
2025-01-09 14:48:44.649,354.000000
2025-01-09 14:48:44.667,103.000000
2025-01-09 14:48:44.675,145.000000
2025-01-09 14:48:44.685,210.000000
2025-01-09 14:48:44.693,292.000000
2025-01-09 14:48:44.701,345.000000
2025-01-09 14:48:44.710,344.000000
2025-01-09 14:48:44.720,348.000000
2025-01-09 14:48:44.737,353.000000
2025-01-09 14:48:44.745,353.000000
2025-01-09 14:48:44.753,360.000000
2025-01-09 14:48:44.761,360.000000
2025-01-09 14:48:44.770,366.000000
2025-01-09 14:48:44.790,373.000000
2025-01-09 14:48:44.798,380.000000
2025-01-09 14:48:44.807,386.000000
2025-01-09 14:48:44.815,396.000000
2025-01-09 14:48:44.823,403.000000
2025-01-09 14:48:44.832,406.000000
2025-01-09 14:48:44.840,415.000000
2025-01-09 14:48:44.851,406.000000
2025-01-09 14:48:44.872,400.000000
2025-01-09 14:48:44.881,381.000000
2025-01-09 14:48:44.889,365.000000
2025-01-09 14:48:44.898,344.000000
2025-01-09 14:48:44.906,334.000000
2025-01-09 14:48:44.915,317.000000
2025-01-09 14:48:44.923,315.000000
2025-01-09 14:48:44.933,307.000000
2025-01-09 14:48:44.943,309.000000
2025-01-09 14:48:44.953,304.000000
2025-01-09 14:48:44.962,311.000000
2025-01-09 14:48:44.974,304.000000
2025-01-09 14:48:44.994,314.000000
2025-01-09 14:48:45.003,311.000000
2025-01-09 14:48:45.011,315.000000
2025-01-09 14:48:45.019,315.000000
2025-01-09 14:48:45.027,319.000000
2025-01-09 14:48:45.035,315.000000
2025-01-09 14:48:45.044,316.000000
2025-01-09 14:48:45.055,314.000000
2025-01-09 14:48:45.065,320.000000
2025-01-09 14:48:45.075,313.000000
2025-01-09 14:48:45.086,320.000000
2025-01-09 14:48:45.095,319.000000
2025-01-09 14:48:45.105,318.000000
2025-01-09 14:48:45.116,322.000000
2025-01-09 14:48:45.127,332.000000
2025-01-09 14:48:45.137,328.000000
2025-01-09 14:48:45.153,345.000000
2025-01-09 14:48:45.162,331.000000
2025-01-09 14:48:45.170,325.000000
2025-01-09 14:48:45.178,323.000000
2025-01-09 14:48:45.187,319.000000
2025-01-09 14:48:45.198,320.000000
2025-01-09 14:48:45.208,318.000000
2025-01-09 14:48:45.218,323.000000
2025-01-09 14:48:45.229,302.000000
2025-01-09 14:48:45.238,300.000000
2025-01-09 14:48:45.249,297.000000
2025-01-09 14:48:45.260,410.000000
2025-01-09 14:48:45.269,511.000000
2025-01-09 14:48:45.281,288.000000
2025-01-09 14:48:45.289,114.000000
2025-01-09 14:48:45.299,163.000000
2025-01-09 14:48:45.319,218.000000
2025-01-09 14:48:45.330,304.000000
2025-01-09 14:48:45.340,343.000000
2025-01-09 14:48:45.360,347.000000
2025-01-09 14:48:45.364,351.000000
2025-01-09 14:48:45.370,357.000000
2025-01-09 14:48:45.375,354.000000
2025-01-09 14:48:45.390,359.000000
2025-01-09 14:48:45.400,363.000000
2025-01-09 14:48:45.410,369.000000
2025-01-09 14:48:45.420,370.000000
2025-01-09 14:48:45.441,381.000000
2025-01-09 14:48:45.446,384.000000
2025-01-09 14:48:45.451,393.000000
2025-01-09 14:48:45.462,402.000000
2025-01-09 14:48:45.471,405.000000
2025-01-09 14:48:45.481,407.000000
2025-01-09 14:48:45.491,406.000000
2025-01-09 14:48:45.501,394.000000
2025-01-09 14:48:45.512,381.000000
2025-01-09 14:48:45.522,364.000000
2025-01-09 14:48:45.532,346.000000
2025-01-09 14:48:45.552,334.000000
2025-01-09 14:48:45.556,324.000000
2025-01-09 14:48:45.562,319.000000
2025-01-09 14:48:45.573,315.000000
2025-01-09 14:48:45.594,314.000000
2025-01-09 14:48:45.599,310.000000
2025-01-09 14:48:45.604,315.000000
2025-01-09 14:48:45.619,314.000000
2025-01-09 14:48:45.625,320.000000
2025-01-09 14:48:45.634,314.000000
2025-01-09 14:48:45.644,320.000000
2025-01-09 14:48:45.654,319.000000
2025-01-09 14:48:45.664,322.000000
2025-01-09 14:48:45.676,317.000000
2025-01-09 14:48:45.685,321.000000
2025-01-09 14:48:45.705,318.000000
2025-01-09 14:48:45.710,324.000000
2025-01-09 14:48:45.716,318.000000
2025-01-09 14:48:45.727,322.000000
2025-01-09 14:48:45.736,320.000000
2025-01-09 14:48:45.747,331.000000
2025-01-09 14:48:45.757,330.000000
2025-01-09 14:48:45.767,336.000000
2025-01-09 14:48:45.778,344.000000
2025-01-09 14:48:45.787,339.000000
2025-01-09 14:48:45.797,330.000000
2025-01-09 14:48:45.807,328.000000
2025-01-09 14:48:45.817,320.000000
2025-01-09 14:48:45.828,323.000000
2025-01-09 14:48:45.837,319.000000
2025-01-09 14:48:45.858,323.000000
2025-01-09 14:48:45.862,311.000000
2025-01-09 14:48:45.868,298.000000
2025-01-09 14:48:45.878,299.000000
2025-01-09 14:48:45.888,392.000000
2025-01-09 14:48:45.899,516.000000
2025-01-09 14:48:45.910,329.000000
2025-01-09 14:48:45.919,138.000000
2025-01-09 14:48:45.929,146.000000
2025-01-09 14:48:45.939,213.000000
2025-01-09 14:48:45.950,286.000000
2025-01-09 14:48:45.961,344.000000
2025-01-09 14:48:45.970,342.000000
2025-01-09 14:48:45.980,350.000000
2025-01-09 14:48:45.990,352.000000
2025-01-09 14:48:46.001,356.000000
2025-01-09 14:48:46.011,355.000000
2025-01-09 14:48:46.021,365.000000
2025-01-09 14:48:46.042,364.000000
2025-01-09 14:48:46.046,372.000000
2025-01-09 14:48:46.051,374.000000
2025-01-09 14:48:46.072,384.000000
2025-01-09 14:48:46.080,389.000000
2025-01-09 14:48:46.100,400.000000
2025-01-09 14:48:46.105,399.000000
2025-01-09 14:48:46.111,406.000000
2025-01-09 14:48:46.116,398.000000
2025-01-09 14:48:46.131,396.000000
2025-01-09 14:48:46.141,376.000000
2025-01-09 14:48:46.152,366.000000
2025-01-09 14:48:46.156,345.000000
2025-01-09 14:48:46.172,337.000000
2025-01-09 14:48:46.177,324.000000
2025-01-09 14:48:46.193,322.000000
2025-01-09 14:48:46.203,314.000000
2025-01-09 14:48:46.213,317.000000
2025-01-09 14:48:46.223,313.000000
2025-01-09 14:48:46.233,317.000000
2025-01-09 14:48:46.254,316.000000
2025-01-09 14:48:46.258,317.000000
2025-01-09 14:48:46.263,321.000000
2025-01-09 14:48:46.274,321.000000
2025-01-09 14:48:46.284,321.000000
2025-01-09 14:48:46.294,322.000000
2025-01-09 14:48:46.304,321.000000
2025-01-09 14:48:46.314,321.000000
2025-01-09 14:48:46.324,322.000000
2025-01-09 14:48:46.334,323.000000
2025-01-09 14:48:46.355,325.000000
2025-01-09 14:48:46.359,320.000000
2025-01-09 14:48:46.367,325.000000
2025-01-09 14:48:46.385,326.000000
2025-01-09 14:48:46.389,335.000000
2025-01-09 14:48:46.395,332.000000
2025-01-09 14:48:46.406,349.000000
2025-01-09 14:48:46.416,337.000000
2025-01-09 14:48:46.426,332.000000
2025-01-09 14:48:46.436,326.000000
2025-01-09 14:48:46.447,324.000000
2025-01-09 14:48:46.462,319.000000
2025-01-09 14:48:46.477,323.000000
2025-01-09 14:48:46.481,316.000000
2025-01-09 14:48:46.487,320.000000
2025-01-09 14:48:46.497,295.000000
2025-01-09 14:48:46.508,293.000000
2025-01-09 14:48:46.517,353.000000
2025-01-09 14:48:46.528,540.000000
2025-01-09 14:48:46.537,404.000000
2025-01-09 14:48:46.547,126.000000
2025-01-09 14:48:46.558,128.000000
2025-01-09 14:48:46.568,213.000000
2025-01-09 14:48:46.578,283.000000
2025-01-09 14:48:46.587,350.000000
2025-01-09 14:48:46.599,345.000000
2025-01-09 14:48:46.609,353.000000
2025-01-09 14:48:46.619,357.000000
2025-01-09 14:48:46.629,360.000000
2025-01-09 14:48:46.640,362.000000
2025-01-09 14:48:46.649,366.000000
2025-01-09 14:48:46.660,367.000000
2025-01-09 14:48:46.670,374.000000
2025-01-09 14:48:46.680,382.000000
2025-01-09 14:48:46.690,388.000000
2025-01-09 14:48:46.700,395.000000
2025-01-09 14:48:46.711,403.000000
2025-01-09 14:48:46.721,411.000000
2025-01-09 14:48:46.732,411.000000
2025-01-09 14:48:46.742,410.000000
2025-01-09 14:48:46.752,400.000000
2025-01-09 14:48:46.772,387.000000
2025-01-09 14:48:46.778,366.000000
2025-01-09 14:48:46.802,350.000000
2025-01-09 14:48:46.809,333.000000
2025-01-09 14:48:46.816,325.000000
2025-01-09 14:48:46.822,312.000000
2025-01-09 14:48:46.833,314.000000
2025-01-09 14:48:46.839,305.000000
2025-01-09 14:48:46.854,313.000000
2025-01-09 14:48:46.860,308.000000
2025-01-09 14:48:46.874,316.000000
2025-01-09 14:48:46.882,310.000000
2025-01-09 14:48:46.894,318.000000
2025-01-09 14:48:46.901,311.000000
2025-01-09 14:48:46.919,319.000000
2025-01-09 14:48:46.925,316.000000
2025-01-09 14:48:46.936,321.000000
2025-01-09 14:48:46.956,315.000000
2025-01-09 14:48:46.962,322.000000
2025-01-09 14:48:46.968,315.000000
2025-01-09 14:48:46.986,319.000000
2025-01-09 14:48:46.992,316.000000
2025-01-09 14:48:46.999,319.000000
2025-01-09 14:48:47.005,317.000000
2025-01-09 14:48:47.026,325.000000
2025-01-09 14:48:47.031,327.000000
2025-01-09 14:48:47.037,330.000000
2025-01-09 14:48:47.046,335.000000
2025-01-09 14:48:47.056,343.000000
2025-01-09 14:48:47.066,326.000000
2025-01-09 14:48:47.083,327.000000
2025-01-09 14:48:47.088,321.000000
2025-01-09 14:48:47.097,319.000000
2025-01-09 14:48:47.113,320.000000
2025-01-09 14:48:47.118,318.000000
2025-01-09 14:48:47.128,319.000000
2025-01-09 14:48:47.137,295.000000
2025-01-09 14:48:47.148,289.000000
2025-01-09 14:48:47.158,327.000000
2025-01-09 14:48:47.168,509.000000
2025-01-09 14:48:47.178,452.000000
2025-01-09 14:48:47.188,145.000000
2025-01-09 14:48:47.198,109.000000
2025-01-09 14:48:47.209,201.000000
2025-01-09 14:48:47.218,264.000000
2025-01-09 14:48:47.230,344.000000
2025-01-09 14:48:47.239,343.000000
2025-01-09 14:48:47.249,349.000000
2025-01-09 14:48:47.260,349.000000
2025-01-09 14:48:47.269,358.000000
2025-01-09 14:48:47.280,357.000000
2025-01-09 14:48:47.290,363.000000
2025-01-09 14:48:47.300,364.000000
2025-01-09 14:48:47.311,373.000000
2025-01-09 14:48:47.320,375.000000
2025-01-09 14:48:47.330,388.000000
2025-01-09 14:48:47.340,389.000000
2025-01-09 14:48:47.358,401.000000
2025-01-09 14:48:47.364,405.000000
2025-01-09 14:48:47.371,411.000000
2025-01-09 14:48:47.393,409.000000
2025-01-09 14:48:47.399,405.000000
2025-01-09 14:48:47.406,387.000000
2025-01-09 14:48:47.422,371.000000
2025-01-09 14:48:47.428,350.000000
2025-01-09 14:48:47.435,335.000000
2025-01-09 14:48:47.443,324.000000
2025-01-09 14:48:47.453,313.000000
2025-01-09 14:48:47.473,311.000000
2025-01-09 14:48:47.479,308.000000
2025-01-09 14:48:47.493,308.000000
2025-01-09 14:48:47.499,308.000000
2025-01-09 14:48:47.518,312.000000
2025-01-09 14:48:47.525,310.000000
2025-01-09 14:48:47.532,314.000000
2025-01-09 14:48:47.544,313.000000
2025-01-09 14:48:47.553,317.000000
2025-01-09 14:48:47.563,313.000000
2025-01-09 14:48:47.573,318.000000
2025-01-09 14:48:47.583,313.000000
2025-01-09 14:48:47.594,317.000000
2025-01-09 14:48:47.604,313.000000
2025-01-09 14:48:47.623,318.000000
2025-01-09 14:48:47.630,314.000000
2025-01-09 14:48:47.636,318.000000
2025-01-09 14:48:47.646,315.000000
2025-01-09 14:48:47.656,319.000000
2025-01-09 14:48:47.663,316.000000
2025-01-09 14:48:47.677,324.000000
2025-01-09 14:48:47.683,326.000000
2025-01-09 14:48:47.697,329.000000
2025-01-09 14:48:47.703,338.000000
2025-01-09 14:48:47.724,337.000000
2025-01-09 14:48:47.730,324.000000
2025-01-09 14:48:47.748,328.000000
2025-01-09 14:48:47.754,318.000000
2025-01-09 14:48:47.762,320.000000
2025-01-09 14:48:47.768,317.000000
2025-01-09 14:48:47.778,321.000000
2025-01-09 14:48:47.788,314.000000
2025-01-09 14:48:47.798,293.000000
2025-01-09 14:48:47.809,290.000000
2025-01-09 14:48:47.819,362.000000
2025-01-09 14:48:47.829,530.000000
2025-01-09 14:48:47.839,368.000000
2025-01-09 14:48:47.851,125.000000
2025-01-09 14:48:47.860,133.000000
2025-01-09 14:48:47.871,213.000000
2025-01-09 14:48:47.881,283.000000
2025-01-09 14:48:47.898,347.000000
2025-01-09 14:48:47.904,346.000000
2025-01-09 14:48:47.912,354.000000
2025-01-09 14:48:47.922,353.000000
2025-01-09 14:48:47.932,362.000000
2025-01-09 14:48:47.943,362.000000
2025-01-09 14:48:47.952,368.000000
2025-01-09 14:48:47.962,369.000000
2025-01-09 14:48:47.974,376.000000
2025-01-09 14:48:47.983,378.000000
2025-01-09 14:48:47.993,390.000000
2025-01-09 14:48:48.003,395.000000
2025-01-09 14:48:48.014,406.000000
2025-01-09 14:48:48.023,409.000000
2025-01-09 14:48:48.034,413.000000
2025-01-09 14:48:48.043,409.000000
2025-01-09 14:48:48.053,405.000000
2025-01-09 14:48:48.066,385.000000
2025-01-09 14:48:48.073,371.000000
2025-01-09 14:48:48.084,352.000000
2025-01-09 14:48:48.094,342.000000
2025-01-09 14:48:48.104,324.000000
2025-01-09 14:48:48.114,321.000000
2025-01-09 14:48:48.124,311.000000
2025-01-09 14:48:48.146,316.000000
2025-01-09 14:48:48.150,307.000000
2025-01-09 14:48:48.166,312.000000
2025-01-09 14:48:48.170,315.000000
2025-01-09 14:48:48.176,315.000000
2025-01-09 14:48:48.186,318.000000
2025-01-09 14:48:48.196,320.000000
2025-01-09 14:48:48.206,318.000000
2025-01-09 14:48:48.217,318.000000
2025-01-09 14:48:48.227,321.000000
2025-01-09 14:48:48.236,319.000000
2025-01-09 14:48:48.246,320.000000
2025-01-09 14:48:48.256,316.000000
2025-01-09 14:48:48.267,321.000000
2025-01-09 14:48:48.277,317.000000
2025-01-09 14:48:48.287,320.000000
2025-01-09 14:48:48.297,318.000000
2025-01-09 14:48:48.307,327.000000
2025-01-09 14:48:48.317,327.000000
2025-01-09 14:48:48.336,334.000000
2025-01-09 14:48:48.340,337.000000
2025-01-09 14:48:48.356,340.000000
2025-01-09 14:48:48.361,325.000000
2025-01-09 14:48:48.374,329.000000
2025-01-09 14:48:48.387,318.000000
2025-01-09 14:48:48.397,322.000000
2025-01-09 14:48:48.400,316.000000
2025-01-09 14:48:48.417,323.000000
2025-01-09 14:48:48.420,317.000000
2025-01-09 14:48:48.443,303.000000
2025-01-09 14:48:48.449,295.000000
2025-01-09 14:48:48.458,343.000000
2025-01-09 14:48:48.468,489.000000
2025-01-09 14:48:48.479,418.000000
2025-01-09 14:48:48.488,196.000000
2025-01-09 14:48:48.499,118.000000
2025-01-09 14:48:48.509,194.000000
2025-01-09 14:48:48.519,256.000000
2025-01-09 14:48:48.536,328.000000
2025-01-09 14:48:48.540,348.000000
2025-01-09 14:48:48.550,347.000000
2025-01-09 14:48:48.560,353.000000
2025-01-09 14:48:48.571,355.000000
2025-01-09 14:48:48.581,357.000000
2025-01-09 14:48:48.592,361.000000
2025-01-09 14:48:48.601,364.000000
2025-01-09 14:48:48.612,368.000000
2025-01-09 14:48:48.621,374.000000
2025-01-09 14:48:48.633,380.000000
2025-01-09 14:48:48.643,385.000000
2025-01-09 14:48:48.653,396.000000
2025-01-09 14:48:48.673,398.000000
2025-01-09 14:48:48.678,404.000000
2025-01-09 14:48:48.683,399.000000
2025-01-09 14:48:48.693,400.000000
2025-01-09 14:48:48.703,384.000000
2025-01-09 14:48:48.714,373.000000
2025-01-09 14:48:48.724,351.000000
2025-01-09 14:48:48.745,341.000000
2025-01-09 14:48:48.748,326.000000
2025-01-09 14:48:48.756,322.000000
2025-01-09 14:48:48.765,314.000000
2025-01-09 14:48:48.775,315.000000
2025-01-09 14:48:48.785,312.000000
2025-01-09 14:48:48.797,316.000000
2025-01-09 14:48:48.806,313.000000
2025-01-09 14:48:48.816,318.000000
2025-01-09 14:48:48.826,316.000000
2025-01-09 14:48:48.837,320.000000
2025-01-09 14:48:48.857,316.000000
2025-01-09 14:48:48.861,320.000000
2025-01-09 14:48:48.867,316.000000
2025-01-09 14:48:48.879,321.000000
2025-01-09 14:48:48.888,318.000000
2025-01-09 14:48:48.908,320.000000
2025-01-09 14:48:48.912,318.000000
2025-01-09 14:48:48.918,320.000000
2025-01-09 14:48:48.929,319.000000
2025-01-09 14:48:48.938,319.000000
2025-01-09 14:48:48.949,326.000000
2025-01-09 14:48:48.960,329.000000
2025-01-09 14:48:48.969,330.000000
2025-01-09 14:48:48.989,346.000000
2025-01-09 14:48:48.993,337.000000
2025-01-09 14:48:48.999,327.000000
2025-01-09 14:48:49.010,326.000000
2025-01-09 14:48:49.020,318.000000
2025-01-09 14:48:49.030,320.000000
2025-01-09 14:48:49.040,315.000000
2025-01-09 14:48:49.051,320.000000
2025-01-09 14:48:49.062,312.000000
2025-01-09 14:48:49.072,298.000000
2025-01-09 14:48:49.082,288.000000
2025-01-09 14:48:49.093,353.000000
2025-01-09 14:48:49.102,521.000000
2025-01-09 14:48:49.112,402.000000
2025-01-09 14:48:49.122,138.000000
2025-01-09 14:48:49.133,124.000000
2025-01-09 14:48:49.144,206.000000
2025-01-09 14:48:49.154,276.000000
2025-01-09 14:48:49.168,340.000000
2025-01-09 14:48:49.180,346.000000
2025-01-09 14:48:49.186,346.000000
2025-01-09 14:48:49.197,355.000000
2025-01-09 14:48:49.207,354.000000
2025-01-09 14:48:49.218,362.000000
2025-01-09 14:48:49.228,361.000000
2025-01-09 14:48:49.239,369.000000
2025-01-09 14:48:49.249,368.000000
2025-01-09 14:48:49.260,378.000000
2025-01-09 14:48:49.269,383.000000
2025-01-09 14:48:49.280,394.000000
2025-01-09 14:48:49.291,398.000000
2025-01-09 14:48:49.300,406.000000
2025-01-09 14:48:49.311,407.000000
2025-01-09 14:48:49.320,406.000000
2025-01-09 14:48:49.330,398.000000
2025-01-09 14:48:49.341,385.000000
2025-01-09 14:48:49.350,367.000000
2025-01-09 14:48:49.360,349.000000
2025-01-09 14:48:49.370,334.000000
2025-01-09 14:48:49.380,323.000000
2025-01-09 14:48:49.390,320.000000
2025-01-09 14:48:49.400,312.000000
2025-01-09 14:48:49.420,314.000000
2025-01-09 14:48:49.426,309.000000
2025-01-09 14:48:49.435,316.000000
2025-01-09 14:48:49.445,311.000000
2025-01-09 14:48:49.455,315.000000
2025-01-09 14:48:49.465,314.000000
2025-01-09 14:48:49.477,319.000000
2025-01-09 14:48:49.485,314.000000
2025-01-09 14:48:49.496,320.000000
2025-01-09 14:48:49.506,317.000000
2025-01-09 14:48:49.527,322.000000
2025-01-09 14:48:49.532,315.000000
2025-01-09 14:48:49.538,321.000000
2025-01-09 14:48:49.555,318.000000
2025-01-09 14:48:49.560,320.000000
2025-01-09 14:48:49.568,315.000000
2025-01-09 14:48:49.578,321.000000
2025-01-09 14:48:49.587,320.000000
2025-01-09 14:48:49.598,327.000000
2025-01-09 14:48:49.608,329.000000
2025-01-09 14:48:49.618,334.000000
2025-01-09 14:48:49.628,344.000000
2025-01-09 14:48:49.638,330.000000
2025-01-09 14:48:49.648,324.000000
2025-01-09 14:48:49.658,322.000000
2025-01-09 14:48:49.668,320.000000
2025-01-09 14:48:49.679,317.000000
2025-01-09 14:48:49.689,318.000000
2025-01-09 14:48:49.699,320.000000
2025-01-09 14:48:49.719,300.000000
2025-01-09 14:48:49.723,289.000000
2025-01-09 14:48:49.729,306.000000
2025-01-09 14:48:49.740,462.000000
2025-01-09 14:48:49.750,508.000000
2025-01-09 14:48:49.759,191.000000
2025-01-09 14:48:49.769,96.000000
2025-01-09 14:48:49.789,186.000000
2025-01-09 14:48:49.793,253.000000
2025-01-09 14:48:49.800,329.000000
2025-01-09 14:48:49.819,347.000000
2025-01-09 14:48:49.824,344.000000
2025-01-09 14:48:49.839,354.000000
2025-01-09 14:48:49.842,355.000000
2025-01-09 14:48:49.860,362.000000
2025-01-09 14:48:49.864,361.000000
2025-01-09 14:48:49.884,370.000000
2025-01-09 14:48:49.888,368.000000
2025-01-09 14:48:49.901,380.000000
2025-01-09 14:48:49.905,381.000000
2025-01-09 14:48:49.918,396.000000
2025-01-09 14:48:49.933,398.000000
2025-01-09 14:48:49.938,409.000000
2025-01-09 14:48:49.950,408.000000
2025-01-09 14:48:49.962,412.000000
2025-01-09 14:48:49.972,403.000000
2025-01-09 14:48:49.983,394.000000
2025-01-09 14:48:49.993,372.000000
2025-01-09 14:48:50.004,358.000000
2025-01-09 14:48:50.012,336.000000
2025-01-09 14:48:50.022,329.000000
2025-01-09 14:48:50.033,315.000000
2025-01-09 14:48:50.043,312.000000
2025-01-09 14:48:50.054,307.000000
2025-01-09 14:48:50.063,310.000000
2025-01-09 14:48:50.075,309.000000
2025-01-09 14:48:50.084,311.000000
2025-01-09 14:48:50.095,313.000000
2025-01-09 14:48:50.105,312.000000
2025-01-09 14:48:50.116,315.000000
2025-01-09 14:48:50.121,315.000000
2025-01-09 14:48:50.137,320.000000
2025-01-09 14:48:50.156,317.000000
2025-01-09 14:48:50.164,320.000000
2025-01-09 14:48:50.171,317.000000
2025-01-09 14:48:50.181,320.000000
2025-01-09 14:48:50.187,316.000000
2025-01-09 14:48:50.198,320.000000
2025-01-09 14:48:50.211,315.000000
2025-01-09 14:48:50.218,320.000000
2025-01-09 14:48:50.228,317.000000
2025-01-09 14:48:50.239,328.000000
2025-01-09 14:48:50.248,326.000000
2025-01-09 14:48:50.259,331.000000
2025-01-09 14:48:50.268,344.000000
2025-01-09 14:48:50.279,332.000000
2025-01-09 14:48:50.288,323.000000
2025-01-09 14:48:50.300,322.000000
2025-01-09 14:48:50.311,319.000000
2025-01-09 14:48:50.320,321.000000
2025-01-09 14:48:50.339,317.000000
2025-01-09 14:48:50.355,322.000000
2025-01-09 14:48:50.369,299.000000
2025-01-09 14:48:50.377,292.000000
2025-01-09 14:48:50.383,302.000000
2025-01-09 14:48:50.390,446.000000
2025-01-09 14:48:50.398,518.000000
2025-01-09 14:48:50.404,215.000000
2025-01-09 14:48:50.412,91.000000
2025-01-09 14:48:50.434,179.000000
2025-01-09 14:48:50.441,241.000000
2025-01-09 14:48:50.448,323.000000
2025-01-09 14:48:50.454,344.000000
2025-01-09 14:48:50.462,343.000000
2025-01-09 14:48:50.477,353.000000
2025-01-09 14:48:50.493,353.000000
2025-01-09 14:48:50.512,357.000000
2025-01-09 14:48:50.518,360.000000
2025-01-09 14:48:50.524,364.000000
2025-01-09 14:48:50.532,368.000000
2025-01-09 14:48:50.538,373.000000
2025-01-09 14:48:50.545,380.000000
2025-01-09 14:48:50.553,391.000000
2025-01-09 14:48:50.564,398.000000
2025-01-09 14:48:50.574,405.000000
2025-01-09 14:48:50.584,406.000000
2025-01-09 14:48:50.595,412.000000
2025-01-09 14:48:50.604,403.000000
2025-01-09 14:48:50.614,395.000000
2025-01-09 14:48:50.624,373.000000
2025-01-09 14:48:50.644,360.000000
2025-01-09 14:48:50.650,335.000000
2025-01-09 14:48:50.656,331.000000
2025-01-09 14:48:50.674,315.000000
2025-01-09 14:48:50.684,315.000000
2025-01-09 14:48:50.695,307.000000
2025-01-09 14:48:50.701,314.000000
2025-01-09 14:48:50.715,310.000000
2025-01-09 14:48:50.725,312.000000
2025-01-09 14:48:50.735,311.000000
2025-01-09 14:48:50.746,317.000000
2025-01-09 14:48:50.756,312.000000
2025-01-09 14:48:50.766,322.000000
2025-01-09 14:48:50.777,314.000000
2025-01-09 14:48:50.787,320.000000
2025-01-09 14:48:50.797,319.000000
2025-01-09 14:48:50.807,321.000000
2025-01-09 14:48:50.817,320.000000
2025-01-09 14:48:50.828,319.000000
2025-01-09 14:48:50.837,320.000000
2025-01-09 14:48:50.847,322.000000
2025-01-09 14:48:50.857,321.000000
2025-01-09 14:48:50.867,326.000000
2025-01-09 14:48:50.878,327.000000
2025-01-09 14:48:50.887,331.000000
2025-01-09 14:48:50.898,334.000000
2025-01-09 14:48:50.907,347.000000
2025-01-09 14:48:50.917,332.000000
2025-01-09 14:48:50.927,328.000000
2025-01-09 14:48:50.937,325.000000
2025-01-09 14:48:50.948,321.000000
2025-01-09 14:48:50.958,324.000000
2025-01-09 14:48:50.967,321.000000
2025-01-09 14:48:50.978,323.000000
2025-01-09 14:48:50.988,301.000000
2025-01-09 14:48:50.998,301.000000
2025-01-09 14:48:51.018,315.000000
2025-01-09 14:48:51.022,456.000000
2025-01-09 14:48:51.029,479.000000
2025-01-09 14:48:51.039,236.000000
2025-01-09 14:48:51.050,107.000000
2025-01-09 14:48:51.059,188.000000
2025-01-09 14:48:51.079,234.000000
2025-01-09 14:48:51.083,324.000000
2025-01-09 14:48:51.089,347.000000
2025-01-09 14:48:51.100,349.000000
2025-01-09 14:48:51.110,352.000000
2025-01-09 14:48:51.120,359.000000
2025-01-09 14:48:51.130,359.000000
2025-01-09 14:48:51.143,366.000000
2025-01-09 14:48:51.150,367.000000
2025-01-09 14:48:51.160,369.000000
2025-01-09 14:48:51.170,376.000000
2025-01-09 14:48:51.180,384.000000
2025-01-09 14:48:51.200,389.000000
2025-01-09 14:48:51.203,398.000000
2025-01-09 14:48:51.230,400.000000
2025-01-09 14:48:51.234,407.000000
2025-01-09 14:48:51.241,407.000000
2025-01-09 14:48:51.247,402.000000
2025-01-09 14:48:51.261,394.000000
2025-01-09 14:48:51.265,377.000000
2025-01-09 14:48:51.278,360.000000
2025-01-09 14:48:51.291,342.000000
2025-01-09 14:48:51.301,333.000000
2025-01-09 14:48:51.305,321.000000
2025-01-09 14:48:51.322,320.000000
2025-01-09 14:48:51.326,310.000000
2025-01-09 14:48:51.341,317.000000
2025-01-09 14:48:51.346,310.000000
2025-01-09 14:48:51.362,318.000000
2025-01-09 14:48:51.372,313.000000
2025-01-09 14:48:51.387,319.000000
2025-01-09 14:48:51.392,315.000000
2025-01-09 14:48:51.403,321.000000
2025-01-09 14:48:51.423,317.000000
2025-01-09 14:48:51.428,322.000000
2025-01-09 14:48:51.434,319.000000
2025-01-09 14:48:51.444,320.000000
2025-01-09 14:48:51.454,318.000000
2025-01-09 14:48:51.464,320.000000
2025-01-09 14:48:51.474,319.000000
2025-01-09 14:48:51.496,322.000000
2025-01-09 14:48:51.501,321.000000
2025-01-09 14:48:51.514,329.000000
2025-01-09 14:48:51.526,330.000000
2025-01-09 14:48:51.531,337.000000
2025-01-09 14:48:51.545,346.000000
2025-01-09 14:48:51.551,332.000000
2025-01-09 14:48:51.557,327.000000
2025-01-09 14:48:51.563,321.000000
2025-01-09 14:48:51.572,320.000000
2025-01-09 14:48:51.587,319.000000
2025-01-09 14:48:51.597,320.000000
2025-01-09 14:48:51.606,318.000000
2025-01-09 14:48:51.616,301.000000
2025-01-09 14:48:51.627,293.000000
2025-01-09 14:48:51.637,313.000000
2025-01-09 14:48:51.647,453.000000
2025-01-09 14:48:51.657,495.000000
2025-01-09 14:48:51.668,217.000000
2025-01-09 14:48:51.688,101.000000
2025-01-09 14:48:51.694,178.000000
2025-01-09 14:48:51.700,244.000000
2025-01-09 14:48:51.709,321.000000
2025-01-09 14:48:51.719,348.000000
2025-01-09 14:48:51.729,341.000000
2025-01-09 14:48:51.739,354.000000
2025-01-09 14:48:51.749,352.000000
2025-01-09 14:48:51.760,359.000000
2025-01-09 14:48:51.770,356.000000
2025-01-09 14:48:51.789,366.000000
2025-01-09 14:48:51.796,365.000000
2025-01-09 14:48:51.802,375.000000
2025-01-09 14:48:51.812,379.000000
2025-01-09 14:48:51.821,390.000000
2025-01-09 14:48:51.832,392.000000
2025-01-09 14:48:51.843,405.000000
2025-01-09 14:48:51.852,402.000000
2025-01-09 14:48:51.863,407.000000
2025-01-09 14:48:51.876,400.000000
2025-01-09 14:48:51.883,391.000000
2025-01-09 14:48:51.894,371.000000
2025-01-09 14:48:51.903,356.000000
2025-01-09 14:48:51.914,336.000000
2025-01-09 14:48:51.923,329.000000
2025-01-09 14:48:51.934,317.000000
2025-01-09 14:48:51.945,315.000000
2025-01-09 14:48:51.955,310.000000
2025-01-09 14:48:51.966,310.000000
2025-01-09 14:48:51.976,311.000000
2025-01-09 14:48:51.986,312.000000
2025-01-09 14:48:51.996,314.000000
2025-01-09 14:48:52.006,314.000000
2025-01-09 14:48:52.016,314.000000
2025-01-09 14:48:52.027,315.000000
2025-01-09 14:48:52.037,318.000000
2025-01-09 14:48:52.047,316.000000
2025-01-09 14:48:52.057,319.000000
2025-01-09 14:48:52.067,316.000000
2025-01-09 14:48:52.079,319.000000
2025-01-09 14:48:52.089,315.000000
2025-01-09 14:48:52.099,321.000000
2025-01-09 14:48:52.108,315.000000
2025-01-09 14:48:52.119,319.000000
2025-01-09 14:48:52.129,320.000000
2025-01-09 14:48:52.140,331.000000
2025-01-09 14:48:52.149,324.000000
2025-01-09 14:48:52.160,343.000000
2025-01-09 14:48:52.170,337.000000
2025-01-09 14:48:52.181,328.000000
2025-01-09 14:48:52.200,323.000000
2025-01-09 14:48:52.206,323.000000
2025-01-09 14:48:52.213,317.000000
2025-01-09 14:48:52.223,320.000000
2025-01-09 14:48:52.232,318.000000
2025-01-09 14:48:52.242,319.000000
2025-01-09 14:48:52.252,292.000000
2025-01-09 14:48:52.261,290.000000
2025-01-09 14:48:52.272,342.000000
2025-01-09 14:48:52.287,528.000000
2025-01-09 14:48:52.303,413.000000
2025-01-09 14:48:52.307,131.000000
2025-01-09 14:48:52.313,118.000000
2025-01-09 14:48:52.325,203.000000
2025-01-09 14:48:52.333,278.000000
2025-01-09 14:48:52.343,345.000000
2025-01-09 14:48:52.362,343.000000
2025-01-09 14:48:52.366,350.000000
2025-01-09 14:48:52.383,355.000000
2025-01-09 14:48:52.386,357.000000
2025-01-09 14:48:52.404,360.000000
2025-01-09 14:48:52.407,361.000000
2025-01-09 14:48:52.415,368.000000
2025-01-09 14:48:52.434,370.000000
2025-01-09 14:48:52.444,380.000000
2025-01-09 14:48:52.455,386.000000
2025-01-09 14:48:52.465,395.000000
2025-01-09 14:48:52.476,399.000000
2025-01-09 14:48:52.486,410.000000
2025-01-09 14:48:52.496,408.000000
2025-01-09 14:48:52.506,413.000000
2025-01-09 14:48:52.516,400.000000
2025-01-09 14:48:52.527,390.000000
2025-01-09 14:48:52.547,366.000000
2025-01-09 14:48:52.551,354.000000
2025-01-09 14:48:52.557,333.000000
2025-01-09 14:48:52.567,325.000000
2025-01-09 14:48:52.578,313.000000
2025-01-09 14:48:52.598,313.000000
2025-01-09 14:48:52.601,306.000000
2025-01-09 14:48:52.608,314.000000
2025-01-09 14:48:52.619,308.000000
2025-01-09 14:48:52.629,314.000000
2025-01-09 14:48:52.640,310.000000
2025-01-09 14:48:52.656,318.000000
2025-01-09 14:48:52.660,312.000000
2025-01-09 14:48:52.670,317.000000
2025-01-09 14:48:52.681,315.000000
2025-01-09 14:48:52.685,319.000000
2025-01-09 14:48:52.701,315.000000
2025-01-09 14:48:52.711,319.000000
2025-01-09 14:48:52.722,317.000000
2025-01-09 14:48:52.732,318.000000
2025-01-09 14:48:52.742,317.000000
2025-01-09 14:48:52.752,319.000000
2025-01-09 14:48:52.763,319.000000
2025-01-09 14:48:52.773,324.000000
2025-01-09 14:48:52.783,331.000000
2025-01-09 14:48:52.803,330.000000
2025-01-09 14:48:52.810,345.000000
2025-01-09 14:48:52.817,327.000000
2025-01-09 14:48:52.824,330.000000
2025-01-09 14:48:52.835,318.000000
2025-01-09 14:48:52.845,321.000000
2025-01-09 14:48:52.866,315.000000
2025-01-09 14:48:52.871,320.000000
2025-01-09 14:48:52.886,316.000000
2025-01-09 14:48:52.891,304.000000
2025-01-09 14:48:52.897,288.000000
2025-01-09 14:48:52.906,308.000000
2025-01-09 14:48:52.917,443.000000
2025-01-09 14:48:52.927,516.000000
2025-01-09 14:48:52.937,214.000000
2025-01-09 14:48:52.947,98.000000
2025-01-09 14:48:52.968,176.000000
2025-01-09 14:48:52.973,238.000000
2025-01-09 14:48:52.979,318.000000
2025-01-09 14:48:52.988,350.000000
2025-01-09 14:48:52.998,342.000000
2025-01-09 14:48:53.008,350.000000
2025-01-09 14:48:53.019,351.000000
2025-01-09 14:48:53.028,360.000000
2025-01-09 14:48:53.039,356.000000
2025-01-09 14:48:53.049,363.000000
2025-01-09 14:48:53.059,366.000000
2025-01-09 14:48:53.068,373.000000
2025-01-09 14:48:53.080,378.000000
2025-01-09 14:48:53.089,388.000000
2025-01-09 14:48:53.099,393.000000
2025-01-09 14:48:53.110,403.000000
2025-01-09 14:48:53.121,404.000000
2025-01-09 14:48:53.130,405.000000
2025-01-09 14:48:53.145,404.000000
2025-01-09 14:48:53.151,392.000000
2025-01-09 14:48:53.162,376.000000
2025-01-09 14:48:53.172,357.000000
2025-01-09 14:48:53.182,340.000000
2025-01-09 14:48:53.192,327.000000
2025-01-09 14:48:53.202,323.000000
2025-01-09 14:48:53.222,309.000000
2025-01-09 14:48:53.228,312.000000
2025-01-09 14:48:53.234,310.000000
2025-01-09 14:48:53.242,312.000000
2025-01-09 14:48:53.271,308.000000
2025-01-09 14:48:53.278,315.000000
2025-01-09 14:48:53.285,311.000000
2025-01-09 14:48:53.291,316.000000
2025-01-09 14:48:53.298,313.000000
2025-01-09 14:48:53.304,318.000000
2025-01-09 14:48:53.313,314.000000
2025-01-09 14:48:53.322,320.000000
2025-01-09 14:48:53.352,316.000000
2025-01-09 14:48:53.358,319.000000
2025-01-09 14:48:53.364,314.000000
2025-01-09 14:48:53.374,322.000000
2025-01-09 14:48:53.384,317.000000
2025-01-09 14:48:53.389,321.000000
2025-01-09 14:48:53.404,316.000000
2025-01-09 14:48:53.410,325.000000
2025-01-09 14:48:53.423,329.000000
2025-01-09 14:48:53.427,331.000000
2025-01-09 14:48:53.444,337.000000
2025-01-09 14:48:53.449,338.000000
2025-01-09 14:48:53.465,325.000000
2025-01-09 14:48:53.469,327.000000
2025-01-09 14:48:53.484,319.000000
2025-01-09 14:48:53.488,321.000000
2025-01-09 14:48:53.505,319.000000
2025-01-09 14:48:53.516,319.000000
2025-01-09 14:48:53.526,319.000000
2025-01-09 14:48:53.536,296.000000
2025-01-09 14:48:53.546,297.000000
2025-01-09 14:48:53.566,362.000000
2025-01-09 14:48:53.570,511.000000
2025-01-09 14:48:53.577,373.000000
2025-01-09 14:48:53.587,158.000000
2025-01-09 14:48:53.597,126.000000
2025-01-09 14:48:53.607,206.000000
2025-01-09 14:48:53.618,267.000000
2025-01-09 14:48:53.628,340.000000
2025-01-09 14:48:53.638,343.000000
2025-01-09 14:48:53.647,351.000000
2025-01-09 14:48:53.667,352.000000
2025-01-09 14:48:53.671,360.000000
2025-01-09 14:48:53.683,355.000000
2025-01-09 14:48:53.689,364.000000
2025-01-09 14:48:53.699,362.000000
2025-01-09 14:48:53.709,374.000000
2025-01-09 14:48:53.719,374.000000
2025-01-09 14:48:53.730,386.000000
2025-01-09 14:48:53.739,387.000000
2025-01-09 14:48:53.760,399.000000
2025-01-09 14:48:53.764,402.000000
2025-01-09 14:48:53.771,409.000000
2025-01-09 14:48:53.781,403.000000
2025-01-09 14:48:53.790,406.000000
2025-01-09 14:48:53.801,387.000000
2025-01-09 14:48:53.811,369.000000
2025-01-09 14:48:53.821,353.000000
2025-01-09 14:48:53.831,341.000000
2025-01-09 14:48:53.842,328.000000
2025-01-09 14:48:53.851,321.000000
2025-01-09 14:48:53.862,318.000000
2025-01-09 14:48:53.872,320.000000
2025-01-09 14:48:53.882,316.000000
2025-01-09 14:48:53.892,314.000000
2025-01-09 14:48:53.902,318.000000
2025-01-09 14:48:53.913,319.000000
2025-01-09 14:48:53.923,318.000000
2025-01-09 14:48:53.933,319.000000
2025-01-09 14:48:53.942,321.000000
2025-01-09 14:48:53.952,320.000000
2025-01-09 14:48:53.963,323.000000
2025-01-09 14:48:53.973,317.000000
2025-01-09 14:48:53.982,322.000000
2025-01-09 14:48:53.993,319.000000
2025-01-09 14:48:54.003,322.000000
2025-01-09 14:48:54.021,317.000000
2025-01-09 14:48:54.028,323.000000
2025-01-09 14:48:54.045,318.000000
2025-01-09 14:48:54.051,325.000000
2025-01-09 14:48:54.058,325.000000
2025-01-09 14:48:54.065,335.000000
2025-01-09 14:48:54.090,328.000000
2025-01-09 14:48:54.098,349.000000
2025-01-09 14:48:54.104,327.000000
2025-01-09 14:48:54.112,331.000000
2025-01-09 14:48:54.121,319.000000
2025-01-09 14:48:54.135,324.000000
2025-01-09 14:48:54.144,317.000000
2025-01-09 14:48:54.152,320.000000
2025-01-09 14:48:54.159,317.000000
2025-01-09 14:48:54.167,306.000000
2025-01-09 14:48:54.187,289.000000
2025-01-09 14:48:54.194,300.000000
2025-01-09 14:48:54.206,424.000000
2025-01-09 14:48:54.216,524.000000
2025-01-09 14:48:54.226,246.000000
2025-01-09 14:48:54.233,96.000000
2025-01-09 14:48:54.247,172.000000
2025-01-09 14:48:54.257,235.000000
2025-01-09 14:48:54.267,318.000000
2025-01-09 14:48:54.278,346.000000
2025-01-09 14:48:54.288,344.000000
2025-01-09 14:48:54.304,353.000000
2025-01-09 14:48:54.310,356.000000
2025-01-09 14:48:54.319,356.000000
2025-01-09 14:48:54.329,363.000000
2025-01-09 14:48:54.339,361.000000
2025-01-09 14:48:54.349,370.000000
2025-01-09 14:48:54.360,372.000000
2025-01-09 14:48:54.370,383.000000
2025-01-09 14:48:54.380,386.000000
2025-01-09 14:48:54.390,398.000000
2025-01-09 14:48:54.401,400.000000
2025-01-09 14:48:54.411,410.000000
2025-01-09 14:48:54.421,405.000000
2025-01-09 14:48:54.436,407.000000
2025-01-09 14:48:54.442,392.000000
2025-01-09 14:48:54.449,378.000000
2025-01-09 14:48:54.458,355.000000
2025-01-09 14:48:54.468,343.000000
2025-01-09 14:48:54.478,327.000000
2025-01-09 14:48:54.489,322.000000
2025-01-09 14:48:54.499,311.000000
2025-01-09 14:48:54.508,311.000000
2025-01-09 14:48:54.518,309.000000
2025-01-09 14:48:54.529,314.000000
2025-01-09 14:48:54.539,306.000000
2025-01-09 14:48:54.549,315.000000
2025-01-09 14:48:54.561,310.000000
2025-01-09 14:48:54.588,316.000000
2025-01-09 14:48:54.594,315.000000
2025-01-09 14:48:54.601,319.000000
2025-01-09 14:48:54.607,318.000000
2025-01-09 14:48:54.620,320.000000
2025-01-09 14:48:54.626,320.000000
2025-01-09 14:48:54.641,318.000000
2025-01-09 14:48:54.648,320.000000
2025-01-09 14:48:54.654,320.000000
2025-01-09 14:48:54.663,320.000000
2025-01-09 14:48:54.673,320.000000
2025-01-09 14:48:54.683,322.000000
2025-01-09 14:48:54.694,322.000000
2025-01-09 14:48:54.704,331.000000
2025-01-09 14:48:54.721,329.000000
2025-01-09 14:48:54.728,336.000000
2025-01-09 14:48:54.734,343.000000
2025-01-09 14:48:54.745,329.000000
2025-01-09 14:48:54.755,325.000000
2025-01-09 14:48:54.765,322.000000
2025-01-09 14:48:54.775,321.000000
2025-01-09 14:48:54.787,323.000000
2025-01-09 14:48:54.806,318.000000
2025-01-09 14:48:54.811,322.000000
2025-01-09 14:48:54.817,297.000000
2025-01-09 14:48:54.828,295.000000
2025-01-09 14:48:54.838,316.000000
2025-01-09 14:48:54.849,481.000000
2025-01-09 14:48:54.858,479.000000
2025-01-09 14:48:54.868,181.000000
2025-01-09 14:48:54.879,98.000000
2025-01-09 14:48:54.889,194.000000
2025-01-09 14:48:54.900,254.000000
2025-01-09 14:48:54.910,339.000000
2025-01-09 14:48:54.921,346.000000
2025-01-09 14:48:54.931,351.000000
2025-01-09 14:48:54.941,355.000000
2025-01-09 14:48:54.951,358.000000
2025-01-09 14:48:54.962,359.000000
2025-01-09 14:48:54.972,366.000000
2025-01-09 14:48:54.982,369.000000
2025-01-09 14:48:54.992,370.000000
2025-01-09 14:48:55.006,377.000000
2025-01-09 14:48:55.013,385.000000
2025-01-09 14:48:55.023,393.000000
2025-01-09 14:48:55.033,401.000000
2025-01-09 14:48:55.044,406.000000
2025-01-09 14:48:55.054,411.000000
2025-01-09 14:48:55.065,413.000000
2025-01-09 14:48:55.075,403.000000
2025-01-09 14:48:55.085,396.000000
2025-01-09 14:48:55.095,373.000000
2025-01-09 14:48:55.105,359.000000
2025-01-09 14:48:55.120,338.000000
2025-01-09 14:48:55.135,328.000000
2025-01-09 14:48:55.144,315.000000
2025-01-09 14:48:55.150,314.000000
2025-01-09 14:48:55.156,310.000000
2025-01-09 14:48:55.167,311.000000
2025-01-09 14:48:55.189,307.000000
2025-01-09 14:48:55.195,314.000000
2025-01-09 14:48:55.202,308.000000
2025-01-09 14:48:55.208,317.000000
2025-01-09 14:48:55.218,309.000000
2025-01-09 14:48:55.244,320.000000
2025-01-09 14:48:55.250,313.000000
2025-01-09 14:48:55.258,319.000000
2025-01-09 14:48:55.265,316.000000
2025-01-09 14:48:55.271,320.000000
2025-01-09 14:48:55.281,314.000000
2025-01-09 14:48:55.299,321.000000
2025-01-09 14:48:55.321,314.000000
2025-01-09 14:48:55.328,316.000000
2025-01-09 14:48:55.333,318.000000
2025-01-09 14:48:55.340,317.000000
2025-01-09 14:48:55.346,318.000000
2025-01-09 14:48:55.359,327.000000
2025-01-09 14:48:55.378,328.000000
2025-01-09 14:48:55.383,329.000000
2025-01-09 14:48:55.390,339.000000
2025-01-09 14:48:55.400,328.000000
2025-01-09 14:48:55.412,325.000000
2025-01-09 14:48:55.432,318.000000
2025-01-09 14:48:55.437,320.000000
2025-01-09 14:48:55.443,317.000000
2025-01-09 14:48:55.450,320.000000
2025-01-09 14:48:55.462,317.000000
2025-01-09 14:48:55.469,304.000000
2025-01-09 14:48:55.482,293.000000
2025-01-09 14:48:55.492,309.000000
2025-01-09 14:48:55.518,425.000000
2025-01-09 14:48:55.524,488.000000
2025-01-09 14:48:55.531,251.000000
2025-01-09 14:48:55.543,111.000000
2025-01-09 14:48:55.549,170.000000
2025-01-09 14:48:55.556,230.000000
2025-01-09 14:48:55.565,307.000000
2025-01-09 14:48:55.573,348.000000
2025-01-09 14:48:55.584,342.000000
2025-01-09 14:48:55.595,352.000000
2025-01-09 14:48:55.607,350.000000
2025-01-09 14:48:55.613,357.000000
2025-01-09 14:48:55.625,358.000000
2025-01-09 14:48:55.634,363.000000
2025-01-09 14:48:55.644,364.000000
2025-01-09 14:48:55.659,373.000000
2025-01-09 14:48:55.665,376.000000
2025-01-09 14:48:55.675,386.000000
2025-01-09 14:48:55.685,391.000000
2025-01-09 14:48:55.697,401.000000
2025-01-09 14:48:55.706,401.000000
2025-01-09 14:48:55.716,407.000000
2025-01-09 14:48:55.725,401.000000
2025-01-09 14:48:55.736,392.000000
2025-01-09 14:48:55.747,378.000000
2025-01-09 14:48:55.757,358.000000
2025-01-09 14:48:55.767,348.000000
2025-01-09 14:48:55.778,330.000000
2025-01-09 14:48:55.787,321.000000
2025-01-09 14:48:55.798,318.000000
2025-01-09 14:48:55.808,312.000000
2025-01-09 14:48:55.832,312.000000
2025-01-09 14:48:55.840,311.000000
2025-01-09 14:48:55.849,312.000000
2025-01-09 14:48:55.856,315.000000
2025-01-09 14:48:55.866,313.000000
2025-01-09 14:48:55.874,318.000000
2025-01-09 14:48:55.882,320.000000
2025-01-09 14:48:55.890,319.000000
2025-01-09 14:48:55.907,315.000000
2025-01-09 14:48:55.915,320.000000
2025-01-09 14:48:55.924,311.000000
2025-01-09 14:48:55.934,322.000000
2025-01-09 14:48:55.943,316.000000
2025-01-09 14:48:55.951,319.000000
2025-01-09 14:48:55.961,316.000000
2025-01-09 14:48:55.971,319.000000
2025-01-09 14:48:55.991,317.000000
2025-01-09 14:48:56.003,323.000000
2025-01-09 14:48:56.011,323.000000
2025-01-09 14:48:56.021,333.000000
2025-01-09 14:48:56.029,328.000000
2025-01-09 14:48:56.043,344.000000
2025-01-09 14:48:56.052,328.000000
2025-01-09 14:48:56.060,330.000000
2025-01-09 14:48:56.071,321.000000
2025-01-09 14:48:56.089,321.000000
2025-01-09 14:48:56.097,319.000000
2025-01-09 14:48:56.105,323.000000
2025-01-09 14:48:56.114,319.000000
2025-01-09 14:48:56.122,308.000000
2025-01-09 14:48:56.135,299.000000
2025-01-09 14:48:56.144,306.000000
2025-01-09 14:48:56.152,420.000000
2025-01-09 14:48:56.165,485.000000
2025-01-09 14:48:56.173,291.000000
2025-01-09 14:48:56.191,126.000000
2025-01-09 14:48:56.199,165.000000
2025-01-09 14:48:56.208,220.000000
2025-01-09 14:48:56.224,301.000000
2025-01-09 14:48:56.233,347.000000
2025-01-09 14:48:56.241,346.000000
2025-01-09 14:48:56.250,350.000000
2025-01-09 14:48:56.258,358.000000
2025-01-09 14:48:56.268,356.000000
2025-01-09 14:48:56.277,365.000000
2025-01-09 14:48:56.287,361.000000
2025-01-09 14:48:56.299,370.000000
2025-01-09 14:48:56.309,372.000000
2025-01-09 14:48:56.318,383.000000
2025-01-09 14:48:56.327,382.000000
2025-01-09 14:48:56.344,397.000000
2025-01-09 14:48:56.355,399.000000
2025-01-09 14:48:56.366,407.000000
2025-01-09 14:48:56.375,405.000000
2025-01-09 14:48:56.384,406.000000
2025-01-09 14:48:56.392,393.000000
2025-01-09 14:48:56.400,383.000000
2025-01-09 14:48:56.409,362.000000
2025-01-09 14:48:56.419,349.000000
2025-01-09 14:48:56.428,333.000000
2025-01-09 14:48:56.437,328.000000
2025-01-09 14:48:56.453,318.000000
2025-01-09 14:48:56.462,318.000000
2025-01-09 14:48:56.471,313.000000
2025-01-09 14:48:56.480,317.000000
2025-01-09 14:48:56.490,314.000000
2025-01-09 14:48:56.499,315.000000
2025-01-09 14:48:56.509,318.000000
2025-01-09 14:48:56.518,319.000000
2025-01-09 14:48:56.529,319.000000
2025-01-09 14:48:56.539,318.000000
2025-01-09 14:48:56.549,320.000000
2025-01-09 14:48:56.559,318.000000
2025-01-09 14:48:56.569,320.000000
2025-01-09 14:48:56.579,318.000000
2025-01-09 14:48:56.589,321.000000
2025-01-09 14:48:56.600,317.000000
2025-01-09 14:48:56.610,320.000000
2025-01-09 14:48:56.619,316.000000
2025-01-09 14:48:56.631,320.000000
2025-01-09 14:48:56.650,316.000000
2025-01-09 14:48:56.658,326.000000
2025-01-09 14:48:56.670,328.000000
2025-01-09 14:48:56.679,333.000000
2025-01-09 14:48:56.691,339.000000
2025-01-09 14:48:56.710,342.000000
2025-01-09 14:48:56.719,324.000000
2025-01-09 14:48:56.729,329.000000
2025-01-09 14:48:56.738,316.000000
2025-01-09 14:48:56.747,320.000000
2025-01-09 14:48:56.755,313.000000
2025-01-09 14:48:56.764,320.000000
2025-01-09 14:48:56.772,314.000000
2025-01-09 14:48:56.781,297.000000
2025-01-09 14:48:56.801,285.000000
2025-01-09 14:48:56.808,330.000000
2025-01-09 14:48:56.817,506.000000
2025-01-09 14:48:56.826,448.000000
2025-01-09 14:48:56.834,130.000000
2025-01-09 14:48:56.844,114.000000
2025-01-09 14:48:56.853,202.000000
2025-01-09 14:48:56.862,273.000000
2025-01-09 14:48:56.870,343.000000
2025-01-09 14:48:56.882,345.000000
2025-01-09 14:48:56.890,348.000000
2025-01-09 14:48:56.901,353.000000
2025-01-09 14:48:56.911,356.000000
2025-01-09 14:48:56.921,359.000000
2025-01-09 14:48:56.931,362.000000
2025-01-09 14:48:56.944,365.000000
2025-01-09 14:48:56.962,369.000000
2025-01-09 14:48:56.970,375.000000
2025-01-09 14:48:56.979,385.000000
2025-01-09 14:48:56.987,390.000000
2025-01-09 14:48:56.996,401.000000
2025-01-09 14:48:57.005,402.000000
2025-01-09 14:48:57.013,408.000000
2025-01-09 14:48:57.022,405.000000
2025-01-09 14:48:57.031,404.000000
2025-01-09 14:48:57.042,383.000000
2025-01-09 14:48:57.061,372.000000
2025-01-09 14:48:57.071,347.000000
2025-01-09 14:48:57.081,338.000000
2025-01-09 14:48:57.091,318.000000
2025-01-09 14:48:57.101,318.000000
2025-01-09 14:48:57.114,307.000000
2025-01-09 14:48:57.123,310.000000
2025-01-09 14:48:57.132,306.000000
2025-01-09 14:48:57.141,311.000000
2025-01-09 14:48:57.163,307.000000
2025-01-09 14:48:57.172,313.000000
2025-01-09 14:48:57.182,311.000000
2025-01-09 14:48:57.191,316.000000
2025-01-09 14:48:57.201,314.000000
2025-01-09 14:48:57.210,316.000000
2025-01-09 14:48:57.220,316.000000
2025-01-09 14:48:57.229,318.000000
2025-01-09 14:48:57.237,316.000000
2025-01-09 14:48:57.246,318.000000
2025-01-09 14:48:57.255,315.000000
2025-01-09 14:48:57.267,317.000000
2025-01-09 14:48:57.276,315.000000
2025-01-09 14:48:57.296,318.000000
